0.84
0.87
0.85
0.89
0.91
0.89
0.9
0.92
0.91
0.88
0.88
0.89
0.89
0.85
0.79
0.78
0.77
0.79
0.85
0.9
0.92
0.88
0.89
0.91
0.9
0.86
0.86
0.85
0.23
1.3
0.38
0.5
1.57
0.79
0.78
0.8
0.81
0.82
0.8
0.83
0.85
0.29
1.3
0.68
0.46
0.27
0.87
0.28
0.47
2.27
0.87
0.77
0.79
0.81
0.78
0.75
0.73
0.73
0.72
0.72
0.73
0.63
0.79
0.71
0.71
0.72
0.69
0.68
0.72
0.77
0.82
0.85
0.85
0.86
0.85
0.84
0.79
0.78
0.75
0.78
0.86
0.9
0.92
0.87
0.87
0.88
0.84
0.79
0.81
0.86
0.9
0.89
0.89
1.63
2.22
0.85
2.54
0.77
1.58
0.83
0.87
0.83
1.52
0.75
1.57
0.87
0.92
0.9
0.84
0.87
0.84
0.89
0.92
1.71
0.88
1.8
1.85
0.94
0.92
0.91
0.85
0.73
0.92
3.25
3.53
1.03
2
1.88
0.91
0.88
0.88
0.84
0.86
1.7
0.84
1.72
1.58
1.63
0.82
0.81
0.83
0.79
0.8
0.79
0.77
0.79
0.84
0.86
0.86
0.82
0.82
0.81
0.84
0.87
0.88
1.84
0.95
1.84
0.91
0.93
0.86
0.89
0.89
1.72
0.86
1.72
0.85
2.54
0.87
1.63
0.82
0.86
0.88
0.82
0.82
0.81
1.54
0.76
0.74
0.76
0.87
0.91
0.9
0.81
0.79
0.79
0.78
1.63
0.87
0.87
1.59
0.84
0.9
0.92
0.87
0.86
0.85
0.82
0.81
0.82
0.83
0.88
0.94
0.89
0.84
0.91
0.95
0.92
0.9
0.91
0.83
0.81
0.9
0.9
0.87
0.94
0.95
0.93
0.91
0.91
0.85
0.87
0.91
0.91
0.85
0.92
0.94
0.91
0.89
0.87
0.84
0.87
0.87
0.86
0.82
0.78
0.84
0.85
1.59
0.88
0.93
0.94
0.9
0.87
0.83
0.82
0.83
0.8
0.83
0.87
0.9
0.87
0.87
0.53
0.27
0.81
0.73
0.71
0.92
0.41
1.03
0.91
0.92
0.89
0.83
0.83
0.82
0.85
0.85
0.84
0.84
0.79
0.8
0.81
0.9
1.91
0.97
0.93
0.84
0.79
0.75
0.75
0.84
0.85
0.89
0.99
0.99
1.86
0.82
0.83
2.72
0.99
0.56
1.19
0.87
0.84
0.86
0.85
0.79
0.82
0.88
0.88
0.92
0.87
0.92
0.92
0.88
0.87
0.9
0.9
0.95
0.89
0.9
0.88
0.94
1.85
0.96
0.97
0.92
1.64
1.6
0.87
0.96
0.96
0.86
0.8
0.78
0.83
1
0.99
0.94
0.94
0.9
0.9
0.91
0.9
0.94
0.95
0.87
0.85
0.88
0.92
0.89
0.92
0.93
0.88
0.9
0.84
0.89
0.83
0.81
0.87
1.71
0.8
1.57
0.79
0.78
0.8
0.76
0.73
1.46
0.74
0.79
0.84
0.87
0.88
0.85
1.53
0.73
0.73
0.78
0.85
0.86
0.84
0.86
0.87
0.78
0.78
0.82
0.86
0.9
0.83
0.79
0.86
2.52
0.79
0.83
0.9
0.9
0.87
1.58
2.34
0.87
0.85
0.86
0.82
1.56
2.23
0.82
0.77
0.76
0.74
0.8
1.81
0.93
0.9
1.67
0.82
1.86
2.69
0.8
1.56
0.82
1.82
0.92
0.89
0.85
0.82
0.85
2.48
0.85
0.83
0.79
0.85
2.54
1.77
0.96
1.89
1.95
0.96
2.58
0.95
0.94
0.83
0.84
0.82
0.89
0.88
0.83
0.86
0.88
1.56
0.96
0.87
0.87
0.89
0.89
0.86
0.89
1.77
0.91
0.84
0.84
2.6
1.11
1.07
0.87
0.76
0.98
0.64
0.66
0.51
0.53
0.29
0.24
0.23
8.44
0.76
0.63
0.65
1.5
0.86
1.69
0.27
0.39
0.39
0.58
0.75
1.48
2.06
1.19
0.45
0.37
0.25
0.41
0.65
2.4
0.91
0.85
0.82
0.79
0.75
0.72
0.71
0.72
0.73
0.79
0.83
0.85
0.84
0.81
0.78
0.75
0.77
0.79
0.82
0.79
0.78
0.8
0.82
0.82
0.79
0.83
0.87
0.83
0.8
0.8
1.05
2.72
0.81
0.81
0.8
0.77
0.8
0.81
0.78
0.77
0.79
0.84
0.81
0.8
0.84
0.88
0.86
0.82
0.84
0.88
0.84
0.83
0.84
0.85
0.84
0.81
0.81
0.85
0.91
0.89
0.88
0.89
0.88
0.85
0.87
0.84
0.8
0.83
0.87
0.85
0.81
0.81
0.76
0.78
0.8
0.79
0.82
0.85
0.88
0.91
0.87
0.82
0.79
0.77
0.77
0.83
0.88
0.88
0.94
0.95
0.88
0.89
0.83
0.69
0.85
0.79
3.66
1.37
1.38
0.82
0.68
0.91
0.82
0.8
0.88
0.87
0.9
0.92
0.91
0.87
0.9
0.95
0.94
0.87
0.92
0.96
0.92
0.84
0.85
2.49
0.87
0.9
0.89
0.87
0.9
0.89
0.83
0.87
0.88
0.9
0.92
1
0.94
0.99
0.94
0.91
0.83
0.8
0.88
1.06
1.09
1.04
0.89
0.8
0.81
0.82
0.86
1.06
1.05
1.02
1.01
0.98
0.93
0.85
0.82
0.83
0.93
0.96
0.99
0.98
0.91
0.92
0.93
0.92
0.92
0.94
0.88
0.91
0.97
1.02
0.98
0.93
0.93
0.94
0.9
0.87
0.84
0.8
0.91
1.02
1.02
1
0.98
0.91
0.94
0.98
0.99
0.99
0.92
0.93
0.97
0.96
0.98
0.97
0.96
0.9
0.91
0.97
1
0.99
0.97
0.93
0.88
0.92
0.97
0.94
1.67
0.78
0.83
0.89
0.95
0.93
0.91
0.86
0.87
0.89
0.89
0.88
0.88
0.88
0.96
0.99
0.99
0.94
0.88
0.91
0.92
0.88
0.82
0.79
0.86
0.88
0.9
0.95
0.9
0.9
0.9
0.84
0.85
0.82
0.85
0.81
0.89
0.93
1.36
0.39
0.42
0.26
0.39
0.89
0.92
0.89
0.85
0.83
0.83
1
1.04
0.95
1.94
0.92
0.92
0.86
0.91
0.91
0.94
0.25
1.59
0.31
1.52
1.68
0.87
0.82
0.77
0.81
0.85
0.91
0.87
0.85
0.85
0.91
0.96
0.97
0.96
0.93
0.9
0.86
0.83
0.88
0.99
1.04
1.04
0.96
0.97
0.88
0.8
0.82
0.85
0.84
0.95
0.95
1.01
1.05
0.97
0.96
0.95
0.92
0.9
0.94
0.97
0.92
0.98
0.98
0.92
0.94
0.93
0.91
0.91
0.94
0.99
1.03
0.97
1.03
1.02
0.96
0.97
0.96
0.88
0.82
0.81
0.86
0.88
0.92
1.63
0.27
1.95
0.95
0.97
0.92
0.9
0.96
0.97
0.99
0.99
0.86
1.17
1.93
0.91
0.85
0.8
0.87
0.91
1
1.09
1.01
1.02
0.99
0.88
0.9
0.93
0.95
0.9
0.97
1
1
0.91
0.9
0.95
0.93
0.82
0.8
0.88
0.93
0.88
0.83
0.84
0.9
0.96
0.98
0.93
0.98
0.98
0.95
0.89
0.92
0.94
0.97
0.97
0.94
1
1.02
0.99
0.94
0.96
0.95
0.9
0.88
0.87
0.94
0.91
0.87
0.81
0.83
0.92
0.93
0.9
0.97
0.97
0.95
0.89
0.92
0.92
0.89
0.92
3.83
1.72
1.51
0.77
0.81
0.83
0.83
0.81
0.83
0.82
0.81
0.82
0.85
0.87
0.83
0.8
0.78
0.87
0.95
0.9
0.94
0.95
0.95
0.55
0.31
0.85
0.88
0.9
0.87
0.86
0.93
0.98
0.94
0.9
0.91
0.9
0.85
0.89
0.95
0.95
0.89
0.85
0.87
0.92
0.94
0.89
0.94
0.97
0.91
0.9
0.93
0.94
0.91
0.96
1
0.98
0.89
0.81
0.82
0.89
0.89
0.97
0.98
0.95
0.93
0.92
0.87
0.84
0.79
0.75
0.77
0.83
0.97
1.02
0.99
0.85
0.84
0.82
0.79
0.79
0.86
0.9
0.86
0.89
0.91
0.9
0.83
0.79
0.77
0.83
0.86
0.86
0.91
0.99
1.01
1
0.98
0.94
0.89
0.94
1.01
1.05
1.03
0.98
0.91
0.9
0.93
0.97
0.98
0.99
1
0.97
0.9
0.93
0.97
0.95
0.86
0.8
0.83
0.87
0.89
0.98
1.02
1
0.93
0.94
0.91
0.91
0.86
0.89
0.94
0.91
0.88
0.91
0.92
0.87
0.88
0.91
0.91
0.85
0.87
0.86
0.87
0.85
0.89
0.91
0.83
0.99
0.92
0.94
0.9
1.63
0.77
0.79
0.85
0.88
0.95
0.99
0.99
0.92
0.94
0.92
0.91
0.89
0.85
0.88
0.93
0.91
0.87
0.92
0.96
0.93
0.91
0.95
0.95
0.88
0.92
0.93
0.91
0.88
0.95
1
0.97
0.95
0.98
0.98
0.92
0.95
0.96
0.96
0.92
0.93
0.95
0.95
0.91
0.96
0.97
0.96
0.9
0.92
0.94
0.95
0.9
0.92
0.94
0.91
0.86
0.81
0.8
0.87
0.93
0.89
0.9
0.99
0.99
0.94
0.92
0.9
0.85
0.91
0.97
0.96
0.9
0.94
0.97
0.96
0.92
0.93
0.94
0.96
0.91
0.95
0.96
0.94
0.97
1
1
0.97
0.97
0.94
0.89
0.86
0.92
0.98
0.98
0.91
0.9
0.88
0.81
0.77
0.83
0.96
0.95
1.02
1
0.99
0.99
0.99
0.9
0.9
0.92
0.95
0.92
0.96
0.97
0.95
0.89
0.92
0.96
0.94
0.92
0.92
0.89
0.85
0.84
0.81
0.82
0.98
0.94
0.96
0.98
0.92
0.83
0.78
0.77
0.79
0.81
0.81
0.78
0.81
0.81
0.81
0.84
0.86
0.93
0.95
0.92
0.94
0.96
0.99
0.97
0.98
0.99
0.91
0.91
0.96
0.96
0.9
0.94
0.99
0.96
0.97
1
0.95
0.94
0.98
0.98
0.93
0.96
0.97
0.92
0.86
0.84
0.83
0.86
0.84
0.82
0.81
0.98
0.96
0.87
0.86
0.89
0.84
0.88
0.92
0.92
0.88
0.89
0.91
0.88
0.9
0.85
0.84
0.83
0.88
0.91
0.95
0.91
0.9
0.91
0.87
0.87
0.8
0.99
0.88
0.82
0.85
0.87
0.85
0.89
0.9
0.94
0.93
0.76
0.96
0.89
0.81
0.85
0.86
0.79
0.83
1.69
0.82
1.61
0.8
0.83
0.85
0.66
0.93
0.8
0.79
0.78
0.8
0.77
0.75
0.79
0.82
0.85
1.78
0.91
0.94
0.94
4.14
1.24
0.8
0.29
0.47
2.56
0.4
0.24
0.31
0.41
1.52
0.26
0.79
0.72
1.71
1.17
1.93
0.73
0.46
0.37
0.98
3.71
0.94
0.35
0.45
0.81
0.83
0.8
0.8
0.77
0.75
3.7
0.87
1.64
0.79
0.79
0.79
0.78
0.73
0.73
0.73
1.54
0.86
0.98
0.97
0.94
0.93
0.89
0.87
0.82
1.56
0.76
0.83
0.8
0.85
0.88
0.86
0.79
0.82
0.81
0.77
0.79
0.81
0.8
0.82
0.89
0.98
0.91
0.84
0.87
0.87
0.8
0.82
0.83
0.82
0.83
0.9
0.95
0.88
0.89
0.89
0.87
0.86
0.9
0.9
0.9
0.92
1.69
0.81
0.86
0.93
0.93
0.92
0.89
0.85
0.79
0.75
0.75
0.73
0.73
0.77
0.84
0.89
0.85
0.84
0.84
0.79
0.79
0.79
0.78
0.81
0.81
0.85
0.26
0.66
0.91
0.91
0.9
0.9
0.79
3.41
0.29
0.54
0.84
0.85
0.93
0.9
0.89
0.83
0.83
0.76
0.91
2.36
0.98
0.96
1.82
0.83
0.82
0.85
0.86
0.88
0.86
0.86
0.9
0.85
0.84
0.82
0.83
0.8
0.87
0.92
0.96
0.98
0.95
0.9
0.44
0.27
0.36
0.54
0.76
0.78
0.86
1.05
0.97
0.97
0.89
0.9
0.91
0.85
0.81
0.76
0.78
0.83
0.85
0.94
0.93
0.92
0.84
0.8
0.81
0.84
0.73
1.68
0.83
0.88
0.88
0.87
0.85
0.82
0.81
0.83
0.79
0.8
0.82
0.9
0.89
0.87
0.36
0.51
0.22
0.55
0.38
1.81
0.51
0.88
2.38
0.95
0.97
1.74
0.81
3.61
0.71
1.48
2.23
0.26
1.62
0.78
0.77
0.78
0.36
0.21
0.26
0.65
2.38
0.59
0.32
0.36
1.16
1.61
0.31
0.43
0.37
0.86
0.34
0.39
0.51
0.36
1.14
0.28
0.49
1.55
0.6
0.71
0.23
1.84
0.46
0.76
0.78
0.78
0.78
0.79
0.78
0.83
0.83
0.86
0.89
0.88
0.81
0.82
0.83
0.73
0.86
0.67
2.62
0.48
0.67
0.35
3.28
0.81
0.72
0.76
0.77
0.78
0.8
0.83
0.83
0.75
0.67
0.78
0.24
0.44
0.71
0.66
0.68
0.7
0.23
1.27
0.82
0.89
0.81
0.75
0.71
0.71
0.74
1.02
1.97
0.96
0.96
0.91
0.89
0.87
0.79
0.77
0.75
0.77
1
0.95
0.96
0.82
0.39
3.96
0.73
0.72
3.72
0.73
0.75
1.49
0.75
0.74
0.81
0.9
0.93
0.92
0.92
0.9
0.85
0.79
0.76
1.68
0.8
0.84
0.83
0.8
0.84
0.9
0.91
0.91
0.87
0.89
0.84
0.8
0.78
0.84
0.91
0.88
0.92
0.95
0.97
0.97
0.89
0.86
0.94
0.93
0.86
0.85
0.94
0.98
0.24
1.56
0.81
0.8
0.81
0.8
0.82
0.81
0.79
0.84
0.94
0.94
0.9
0.89
0.85
0.86
0.86
0.83
0.82
0.78
0.79
0.75
0.73
0.76
0.42
0.31
0.74
0.3
0.42
0.57
0.85
0.7
0.68
0.67
0.67
0.64
0.65
0.65
0.7
0.89
0.92
0.87
0.8
0.79
0.84
0.99
0.86
0.88
0.94
0.92
0.92
0.9
0.88
0.81
0.79
0.82
0.94
0.97
0.94
0.88
0.9
0.86
0.81
0.81
0.86
0.85
0.79
0.75
0.78
0.81
0.81
0.85
0.91
0.89
0.86
0.81
0.83
0.83
0.86
0.81
0.85
0.91
0.96
0.9
0.91
0.92
0.87
0.87
0.89
0.95
0.89
0.88
0.84
0.78
0.78
0.53
0.26
1.51
0.76
0.75
0.74
0.74
0.83
0.88
0.86
0.87
0.89
0.89
0.85
0.83
0.85
0.85
0.82
0.85
0.87
0.92
0.88
0.93
0.96
0.93
0.93
0.93
0.89
0.87
0.9
0.92
0.89
0.9
0.91
0.88
0.81
0.84
0.86
0.87
0.85
0.87
0.91
0.89
0.88
0.91
0.87
0.83
0.91
0.95
0.92
0.89
0.9
0.89
0.84
0.91
0.97
0.93
0.87
0.79
0.76
0.79
0.92
0.92
1
1.05
1.05
1
1
0.98
0.9
0.92
0.92
0.9
0.87
0.91
0.95
0.89
0.82
0.88
0.92
0.95
0.89
0.91
0.91
0.94
0.91
0.99
1.01
0.98
0.95
0.97
0.97
0.92
0.93
0.95
0.96
0.94
0.95
0.96
0.94
0.85
0.82
0.78
0.75
0.76
0.86
0.94
0.96
1.01
0.99
0.92
0.92
0.9
0.87
0.83
0.91
1.01
0.97
0.93
0.98
1.01
0.98
0.95
0.92
0.86
0.81
0.85
0.92
0.93
0.96
0.97
0.94
0.89
0.9
0.92
0.88
0.91
0.97
0.97
0.93
0.95
0.9
0.82
0.79
0.82
0.82
0.9
0.92
0.91
0.87
0.91
0.91
0.85
0.87
0.87
0.89
0.86
0.92
0.93
0.91
0.93
0.95
0.95
0.9
0.94
0.94
0.9
0.89
0.91
0.91
0.84
0.9
0.92
0.91
0.87
0.88
0.95
0.97
0.93
0.88
0.86
0.89
0.95
0.92
0.87
0.93
0.97
0.98
0.93
0.91
0.95
0.98
0.91
0.83
0.82
0.84
0.83
0.91
0.99
1
0.98
0.91
0.92
0.88
0.82
0.83
0.89
0.97
0.94
0.96
0.95
0.93
0.91
0.91
0.94
0.91
0.94
0.98
0.97
0.92
0.94
0.96
0.91
0.9
0.93
0.94
0.88
0.9
0.94
0.91
0.88
0.91
0.9
0.87
0.86
0.87
0.9
0.88
0.91
0.98
1.02
0.94
0.95
0.94
0.87
0.82
0.78
0.76
0.76
0.83
0.88
0.86
0.91
0.91
0.91
0.88
0.88
0.89
0.91
0.87
0.83
0.88
0.97
1.03
1.01
0.95
0.97
0.98
0.99
0.92
0.93
0.94
0.91
0.88
0.87
0.83
0.84
0.93
0.93
0.88
0.92
0.92
0.86
0.83
0.8
0.78
0.76
0.79
0.85
0.91
0.92
0.94
0.97
0.93
0.96
0.96
0.94
0.89
0.93
0.95
0.92
0.83
0.79
0.82
0.91
0.94
0.93
0.99
0.99
0.95
0.98
0.97
0.92
0.91
0.96
0.96
0.92
0.93
0.98
0.99
0.96
0.98
0.99
0.98
0.91
0.92
0.92
0.92
0.9
0.95
1.01
0.96
0.89
0.87
0.86
0.84
0.86
0.91
0.94
0.88
0.91
0.92
0.9
0.85
0.88
0.94
0.94
0.95
1.03
1.07
1.02
1
0.98
0.92
0.91
0.95
0.95
0.9
0.97
1
1
0.96
0.98
0.98
0.92
0.91
0.91
0.86
0.79
0.77
0.79
0.88
0.92
0.95
0.99
0.99
0.93
0.96
0.98
0.97
0.93
0.91
0.95
0.96
0.9
0.96
1
1.02
0.96
1.02
1.07
1.01
0.99
0.96
0.91
0.8
0.76
0.85
1.14
2.18
1.07
0.97
0.97
0.98
0.99
0.98
0.97
0.95
0.96
0.96
0.94
0.85
0.81
0.82
0.89
0.93
0.93
0.83
0.82
0.88
0.95
0.91
0.92
0.97
1
0.94
0.92
0.94
0.95
0.94
0.95
0.98
0.99
0.94
0.96
0.99
0.94
0.91
0.98
1.01
0.98
0.95
0.98
0.98
0.93
0.96
0.99
0.96
0.93
0.96
0.98
0.9
0.82
0.75
0.75
0.81
0.88
0.88
0.91
0.86
0.85
0.82
0.8
0.77
0.75
0.73
0.75
0.88
0.91
0.97
1.01
1.03
1
0.98
0.96
0.91
0.87
0.83
0.89
0.9
0.92
0.86
0.88
0.87
0.85
0.82
0.84
0.89
0.95
0.96
1.02
0.99
1.02
0.99
1.04
1.03
0.96
0.96
0.99
0.96
0.93
0.97
0.98
0.92
0.95
0.96
0.93
0.95
0.99
0.97
0.91
0.88
0.83
0.8
0.82
0.8
0.78
0.79
0.89
0.98
0.91
0.9
0.83
0.78
0.8
0.81
0.86
0.91
0.96
0.98
0.93
0.91
0.95
0.99
0.98
0.99
1.06
1.09
1.01
0.97
0.95
0.95
0.95
0.95
0.99
1.08
1.04
1.08
0.98
0.94
0.94
0.96
0.99
0.98
1.01
0.9
0.91
0.93
0.93
0.9
0.84
0.79
0.77
0.76
0.84
0.99
0.97
0.92
0.97
0.98
0.99
0.97
0.97
0.97
0.92
0.91
0.96
1.01
0.93
0.97
0.98
0.96
0.91
0.94
0.92
0.84
0.68
1.46
0.34
1.9
0.41
1.13
0.53
0.28
0.83
0.66
0.71
0.38
0.64
0.77
1.09
0.84
1.61
0.82
0.8
0.4
0.39
0.85
0.78
0.75
0.76
0.79
0.95
1.02
0.99
0.91
0.82
0.78
0.79
0.83
0.94
0.98
0.7
0.24
0.99
0.89
0.9
0.89
0.85
0.84
0.89
0.92
0.86
0.82
0.8
0.78
0.83
0.97
1
1.01
1
0.98
0.94
0.92
0.87
0.84
0.94
1
1.06
1.02
0.96
0.79
1.39
0.32
0.64
2.13
0.25
0.58
1.63
0.74
0.77
2.19
0.71
0.71
0.7
1.38
0.67
0.38
0.31
1.35
1.27
0.74
0.67
1.32
0.71
1.29
1.08
1.02
0.88
0.82
0.86
1.95
1.04
0.97
0.91
0.83
0.82
0.87
0.91
0.99
0.99
0.97
0.93
0.87
0.88
0.99
1.1
1.09
1.03
0.98
0.91
0.9
0.87
0.31
0.37
1.71
1.38
2.91
1.15
0.8
3.01
0.71
0.92
0.72
0.33
0.58
1.67
0.78
0.77
0.57
1
0.84
0.9
0.87
0.89
0.92
0.9
0.84
0.83
0.81
0.83
0.79
0.76
0.74
0.75
0.76
0.87
0.94
0.94
0.85
1.57
0.62
0.85
0.84
0.96
0.95
1
0.94
0.34
0.7
0.92
0.75
0.93
0.31
0.54
0.81
0.9
0.86
0.95
0.95
0.91
0.92
0.9
0.65
0.21
0.78
0.77
2.23
0.82
0.9
0.91
0.86
0.83
0.82
0.82
0.8
0.78
0.79
0.81
0.82
0.78
0.77
0.78
0.82
0.81
0.78
0.77
0.81
0.84
0.83
0.86
0.88
0.86
0.84
0.87
0.76
0.98
0.87
0.81
0.84
0.88
0.91
0.88
0.89
0.92
0.85
1.69
0.87
0.89
0.88
0.88
0.85
0.83
0.85
0.87
0.87
0.92
0.96
0.92
0.86
0.87
0.85
0.86
0.82
0.79
0.81
0.83
0.81
0.76
0.55
0.21
0.76
0.78
0.77
0.87
0.85
0.8
0.79
0.76
0.8
0.84
0.8
0.78
0.78
0.81
0.8
0.82
0.82
0.84
0.86
0.85
0.86
0.84
0.86
0.86
0.81
0.9
0.95
1
0.9
0.88
0.94
0.96
0.91
0.85
0.87
0.87
0.85
0.79
0.79
0.82
0.84
0.86
0.9
0.91
0.88
0.81
0.84
0.87
0.87
0.86
0.84
0.81
0.78
0.79
0.8
0.81
0.78
0.75
0.74
0.74
0.79
0.87
0.89
0.9
0.88
0.82
0.78
0.8
0.83
0.81
0.37
0.26
0.51
0.53
0.83
0.81
0.77
2.17
0.78
0.72
0.6
0.51
0.2
0.34
0.4
0.82
1.26
2.27
3.36
0.65
0.3
0.27
2.01
0.67
0.67
0.51
0.82
0.68
0.72
0.75
0.79
0.85
0.87
0.85
0.82
0.83
0.82
0.78
0.74
0.72
0.71
0.71
0.74
0.81
0.87
0.58
0.78
0.34
0.76
0.78
0.73
0.7
0.54
0.88
0.7
0.7
0.69
0.69
0.72
0.75
0.78
0.77
0.8
0.84
0.87
0.84
0.82
0.83
0.84
0.82
0.8
0.81
0.84
0.85
0.82
0.8
0.75
0.74
0.72
0.72
0.74
0.81
0.9
0.9
0.85
0.82
0.83
0.84
0.82
0.78
0.82
0.85
0.89
0.87
0.9
0.93
0.93
0.86
0.86
0.84
0.83
0.79
0.83
0.83
0.89
0.85
0.87
0.87
0.81
0.79
0.77
0.79
0.82
0.82
0.85
0.96
1.12
1.13
1.1
1.02
0.9
0.82
0.74
0.73
0.73
0.73
0.74
0.74
0.79
0.9
0.91
0.99
0.99
0.97
0.9
0.9
0.9
0.89
0.87
0.97
1
0.92
0.88
0.89
0.9
0.9
0.95
0.99
0.99
0.89
0.89
0.87
0.83
0.85
0.87
0.92
0.88
0.95
0.95
0.88
0.83
0.82
0.84
0.86
0.88
0.82
0.85
0.91
0.94
0.9
0.96
0.95
0.94
0.93
0.96
0.94
0.89
0.88
0.88
0.97
0.98
0.99
0.97
0.93
0.87
0.88
0.92
1
0.95
0.96
0.95
0.92
0.85
0.89
0.91
0.93
0.94
0.98
0.99
0.94
0.92
0.89
0.88
0.82
0.83
0.83
0.86
0.83
0.84
0.91
0.99
0.97
0.95
0.95
0.95
0.91
0.91
0.87
0.86
0.83
0.9
0.94
0.91
0.82
0.8
0.84
0.88
0.86
0.88
0.92
0.95
0.9
0.96
1
0.97
0.92
0.93
0.99
1.01
0.95
1
1
0.94
0.98
1.01
1.01
0.94
0.96
0.97
1.01
0.97
0.95
0.95
0.96
0.87
0.8
0.82
0.96
1.06
1.06
1.01
0.93
0.9
0.9
0.93
0.91
0.87
0.84
0.81
0.83
0.81
0.85
0.88
0.93
0.93
0.92
0.92
0.88
0.85
0.9
0.82
0.85
0.83
0.79
0.77
0.77
0.77
0.79
0.79
0.8
0.79
0.77
0.78
0.74
0.73
0.7
0.73
0.79
0.78
0.83
0.37
0.56
0.95
0.98
0.94
0.74
0.53
0.44
0.81
0.82
0.84
0.9
1.03
1.01
1.05
1
0.93
0.9
0.83
0.94
0.82
2.51
0.94
0.84
0.81
0.76
0.75
0.75
0.78
0.81
0.82
0.28
0.42
0.32
0.57
0.84
0.89
0.89
0.93
0.87
0.85
0.9
0.95
0.9
0.93
0.95
0.95
0.93
0.93
0.95
0.91
0.94
0.97
0.97
0.88
0.94
1.01
0.96
0.89
0.91
0.92
0.88
0.87
0.91
0.97
0.91
0.97
0.97
0.92
0.9
0.93
0.93
0.91
0.93
0.96
0.9
0.84
0.81
0.84
0.94
0.94
0.99
1.02
0.95
0.92
0.83
0.78
0.79
0.81
0.92
1.03
0.98
0.97
0.98
0.95
0.86
0.93
1.01
0.94
0.87
0.97
0.99
0.26
0.71
0.97
1.03
1.03
0.97
0.98
0.94
0.91
0.93
0.91
0.9
0.91
0.91
0.37
0.5
0.88
0.89
0.91
0.9
0.89
0.86
0.87
0.87
0.88
0.84
0.84
0.83
0.81
0.81
0.82
0.81
0.8
0.82
0.79
0.67
0.99
0.79
0.82
0.83
0.79
0.79
0.8
0.81
0.81
0.81
0.85
0.33
0.54
0.86
0.85
0.82
0.79
0.79
0.77
0.79
0.79
1.53
0.35
1.17
0.32
0.39
0.73
0.7
0.71
0.72
0.75
0.74
0.77
0.77
0.77
0.74
0.74
0.45
0.3
1.38
0.86
0.74
0.72
0.71
0.7
0.69
0.71
0.28
0.44
0.72
0.75
0.79
0.85
0.98
0.98
0.91
0.89
0.87
0.79
1
2.03
0.44
0.76
0.71
0.87
0.33
0.49
0.81
0.77
0.73
0.76
0.81
0.79
0.75
0.77
0.72
0.94
0.85
0.85
0.92
0.36
0.54
0.86
0.9
0.87
0.96
0.89
0.93
0.94
0.86
0.88
0.89
0.79
0.92
0.9
0.96
1
0.95
0.94
0.61
0.33
0.77
1.06
0.93
0.8
0.99
1.9
4.36
1.82
0.73
1.01
0.44
1.01
0.33
0.32
0.35
0.27
0.8
0.9
0.86
0.85
0.91
0.76
1.11
0.88
0.93
0.67
4.73
0.47
0.27
0.48
0.74
0.75
0.74
0.78
1.62
0.78
0.75
0.73
0.73
0.76
0.86
0.96
0.88
0.87
0.95
1.01
1
0.96
1.7
0.77
0.75
0.75
0.8
0.79
0.79
0.81
0.87
0.92
0.93
0.93
0.9
0.85
0.84
0.93
1.04
1.04
1
0.97
0.92
0.89
0.87
0.86
0.88
0.86
0.9
0.95
0.9
0.92
1.54
0.88
0.25
0.55
0.8
0.8
0.82
0.83
0.73
0.91
5
1.98
0.21
0.35
2.49
0.22
0.94
0.55
0.61
0.21
0.38
0.57
0.91
0.92
0.92
0.63
0.25
0.82
0.36
0.54
4
1.66
0.77
0.77
1.58
0.88
0.86
0.93
0.81
0.77
0.74
0.72
0.73
0.78
0.79
0.8
0.88
0.93
0.96
0.92
0.86
0.87
0.94
0.99
1
0.97
0.97
1
1.03
0.96
0.9
0.84
0.87
0.89
0.9
0.9
0.96
1
0.94
0.95
0.95
0.95
0.91
0.96
0.97
0.95
0.92
0.92
0.91
0.87
0.89
0.94
0.93
0.88
0.87
0.86
0.82
0.79
0.81
0.82
0.84
0.82
0.82
0.83
0.82
0.79
0.75
0.72
0.74
0.82
0.99
1.01
1.03
1.03
1.01
0.96
0.98
0.97
0.89
0.92
0.97
0.93
0.93
1.02
1.03
0.96
1
1.01
0.94
0.91
0.93
0.93
0.85
0.89
0.91
0.91
0.86
0.82
0.79
0.84
0.9
0.88
0.88
0.92
0.92
0.89
0.94
0.98
0.96
0.92
0.95
1.02
1
0.99
1.02
1
0.93
0.93
0.93
0.89
0.98
1.02
0.99
0.96
0.99
1.01
0.95
0.93
0.95
0.92
0.85
0.88
0.91
0.87
0.81
0.79
0.78
0.92
1.02
0.99
1.03
0.98
0.88
0.87
0.9
0.92
0.88
0.91
0.91
0.92
0.88
0.99
1.07
1.03
1
1.02
0.99
0.96
0.99
0.99
0.94
0.91
0.94
0.91
0.9
0.98
1.03
0.99
0.98
0.96
0.93
0.89
0.97
1.02
0.97
0.97
1.01
0.99
0.93
0.98
1.01
0.99
0.91
0.88
0.84
0.78
0.78
0.87
0.97
1.05
1.06
1.03
0.96
0.95
0.96
0.93
0.97
1.02
1
1.01
1.05
0.99
0.87
0.81
0.81
1
1.07
1.09
1.06
0.99
0.86
0.85
0.89
0.92
0.99
0.99
0.97
1
1.01
1.05
1.38
0.53
1.01
0.86
0.88
0.92
1.01
0.91
0.93
0.96
0.91
1
0.74
0.28
1.03
0.91
0.34
0.49
0.84
0.83
0.84
1.44
0.75
0.41
0.51
0.75
0.29
5.91
0.67
0.67
0.67
2.19
1.1
0.99
0.89
0.81
0.82
0.88
0.94
0.99
1.01
1.04
0.99
0.95
0.95
0.96
0.93
0.88
0.93
1.06
1.07
0.99
0.97
0.97
0.88
0.84
0.84
0.88
0.9
0.86
0.91
1.02
0.99
0.92
0.64
0.25
0.88
0.8
0.77
0.76
0.76
0.76
0.81
0.88
0.9
0.86
0.89
0.9
0.91
0.91
0.96
0.98
0.96
0.94
0.94
0.88
0.85
0.91
0.98
0.96
1.07
1.03
0.93
0.93
0.86
0.79
0.76
0.74
0.74
0.75
0.75
0.76
0.63
0.89
0.74
0.76
0.76
0.8
0.8
0.82
0.86
0.93
0.9
0.92
0.95
0.9
0.88
0.9
0.91
0.94
1.02
1.02
0.97
1.01
1.03
0.98
1
1.01
0.98
0.94
0.97
0.95
0.87
0.88
0.88
0.81
0.79
0.78
0.84
0.87
0.98
1.02
1
0.91
0.94
0.92
0.83
0.8
0.79
0.96
0.97
0.89
0.89
0.91
0.91
0.9
0.84
0.8
0.8
0.81
0.83
0.82
0.84
0.85
0.89
0.92
0.9
0.89
0.94
1.01
1.01
0.96
0.98
0.99
0.99
0.95
0.99
1.02
0.97
0.91
0.94
1
0.93
0.88
0.89
0.82
0.78
0.77
0.86
0.94
1.01
1.07
1.02
0.91
0.92
0.89
0.84
0.88
0.94
0.99
0.96
1
1
0.94
0.96
0.94
0.88
0.86
0.91
1
0.92
0.93
0.94
0.93
0.9
0.92
0.95
0.89
0.9
0.88
0.84
0.79
0.82
0.84
0.86
0.89
0.93
0.87
0.82
0.89
0.95
0.9
0.95
0.97
0.92
0.91
0.92
0.92
0.91
0.98
0.99
0.97
1
1.02
0.95
0.92
0.92
0.9
0.89
0.97
1.06
1.05
0.99
1.01
0.98
0.95
0.97
0.98
0.94
0.84
0.84
0.88
1
1.06
1.01
1.02
0.98
1
0.95
0.94
0.9
0.24
2.33
0.8
0.79
0.78
3.76
0.7
0.26
0.46
0.69
0.68
0.61
0.53
0.21
0.63
0.31
0.46
0.31
0.37
0.66
4.45
1.85
0.7
0.75
1.48
1.64
0.79
0.78
0.77
0.76
0.76
0.84
0.8
0.8
0.8
0.77
0.77
0.74
0.72
0.71
0.73
0.73
0.75
0.79
0.85
0.86
0.79
0.83
0.82
0.81
0.8
0.87
0.98
1.01
0.91
0.9
0.94
0.95
0.89
0.83
0.85
0.84
0.85
0.81
0.87
0.98
0.99
0.93
0.96
0.97
0.9
0.94
0.91
0.89
0.86
0.92
0.93
0.89
0.88
0.88
0.85
0.79
0.8
0.84
0.85
0.9
0.94
0.93
0.89
0.86
0.85
0.81
0.86
0.9
0.97
0.92
0.95
0.98
0.92
0.91
0.95
0.98
0.93
0.94
0.96
0.98
0.91
0.93
0.94
0.98
0.92
0.96
0.97
0.9
0.9
0.92
0.92
0.91
0.92
0.96
0.99
0.94
0.9
0.91
0.95
0.98
0.94
0.97
0.98
0.93
0.91
0.94
0.95
0.9
0.92
0.92
0.92
0.88
0.88
0.95
1
0.97
0.98
0.95
0.93
0.86
0.88
0.89
0.89
0.88
0.83
0.85
0.99
1.06
1.08
1.05
1.03
0.99
0.94
0.9
0.83
0.85
0.88
0.95
0.89
0.9
0.82
0.83
0.77
0.75
0.74
0.76
0.82
0.82
0.83
0.9
0.97
0.93
0.97
0.99
0.89
0.91
0.93
0.92
0.94
0.98
1.02
0.98
1.02
0.98
0.92
0.92
0.94
0.96
0.9
0.8
0.79
1.19
1.06
0.93
0.87
0.93
0.99
1
0.96
0.99
0.96
0.94
0.93
0.94
0.93
0.88
0.89
0.9
0.86
0.92
0.92
0.93
0.94
0.98
1.01
0.98
1.02
1
0.97
0.96
0.93
0.92
0.9
0.94
0.96
0.92
0.94
0.96
0.95
0.92
0.95
0.95
0.89
0.93
0.94
0.92
0.9
0.94
0.93
0.88
0.91
0.93
0.93
0.89
0.92
0.95
0.95
0.93
0.98
0.98
0.92
0.93
0.92
0.91
0.88
0.92
0.93
0.9
0.86
0.85
0.8
0.77
0.83
0.92
0.91
0.94
0.99
0.99
0.92
0.95
0.94
0.94
0.91
0.93
0.96
0.93
0.88
0.88
0.88
0.87
0.89
0.96
1.02
0.96
1.01
1.04
0.99
1
1.01
1
0.93
0.91
0.91
0.94
0.92
0.97
1
1
0.94
0.97
0.97
0.98
0.95
0.93
0.98
1.03
1.01
0.94
0.95
0.94
0.95
0.91
0.93
0.94
0.98
0.92
0.86
0.79
0.78
0.76
1.12
1.02
1.01
0.99
0.94
0.85
0.78
0.76
0.71
0.58
0.82
0.68
0.67
2.07
1.7
0.75
0.82
0.69
0.93
0.78
0.77
0.79
0.82
0.82
0.79
0.78
0.81
0.88
0.94
0.92
0.92
0.98
1.01
1
0.9
0.98
1.02
1
0.97
1.04
1.06
1
0.93
0.91
0.89
0.84
0.85
0.87
0.93
0.92
0.98
1
0.98
0.95
0.94
0.94
0.91
0.96
0.97
0.91
0.91
0.96
0.96
0.91
0.92
0.91
0.86
0.89
0.92
0.89
0.87
0.81
0.78
0.85
0.9
0.89
0.95
1
0.98
0.96
0.99
0.99
0.94
0.96
0.97
1.01
0.99
1.02
1.02
1
0.94
0.89
0.92
0.98
1.04
1.05
1.03
0.96
0.97
1.01
1.04
1.01
1
1.02
1.05
1.03
0.99
1.02
1.03
1.02
0.97
0.95
0.98
0.99
0.96
0.95
1.01
1.01
0.97
0.93
0.96
1
1.06
1.03
1.01
1.06
1.09
1.07
1.01
0.98
0.98
0.96
0.93
0.88
0.83
0.88
0.99
1.01
0.93
0.82
0.84
1
1.02
0.94
0.98
1
1.02
0.96
0.95
0.96
0.94
0.89
0.91
0.95
0.98
0.94
1.04
1.05
1.03
0.97
1.01
1.02
0.98
0.94
0.96
1
0.94
0.94
1
1.08
1.05
1.03
1.01
0.96
0.93
0.96
1.01
0.97
0.99
1
0.99
0.93
0.92
0.94
0.88
0.9
0.91
0.84
0.8
0.8
0.87
0.87
0.93
0.95
0.98
0.97
0.9
0.94
0.94
0.93
0.93
0.96
0.97
0.94
0.95
0.99
1.03
0.96
0.94
0.93
0.94
0.93
1
1.04
1.07
1.04
1.07
1.06
1.01
0.94
0.91
0.9
0.92
0.89
0.94
0.99
1.01
0.97
1
1
0.96
0.92
0.95
0.97
0.95
0.9
0.94
0.97
0.97
0.95
0.98
1.01
1
0.95
0.96
0.97
0.98
0.93
0.92
0.93
0.94
0.94
0.92
0.98
0.99
0.98
0.97
0.99
1.01
0.96
0.94
0.95
0.94
0.91
0.91
0.96
1.01
0.93
0.89
0.83
0.79
0.78
0.82
0.88
0.87
0.96
1.01
1.02
0.93
0.93
0.95
0.95
0.89
0.9
0.93
0.95
0.94
0.89
0.9
0.91
0.92
0.86
0.9
0.94
1.02
0.96
0.93
0.93
0.95
0.94
0.91
0.96
0.98
0.93
0.92
0.97
0.98
0.92
0.94
1.01
1.04
1.01
1.03
1.02
0.99
0.93
0.94
0.94
0.94
0.91
0.95
0.99
1.01
0.91
0.82
0.82
0.85
0.92
0.85
0.8
0.81
0.97
0.96
0.92
0.93
1.03
1.03
1
0.93
0.9
0.89
0.9
0.9
1.01
1.12
1.1
1.05
0.99
1
1.02
0.99
0.99
0.99
0.97
0.93
0.92
0.96
1
1.04
1
1.03
1.07
1.04
0.96
0.93
0.96
0.96
0.97
0.94
0.97
0.99
1.01
0.98
0.95
0.98
0.98
0.95
0.93
0.94
0.94
0.94
0.94
0.97
1
0.97
0.96
0.96
0.92
0.86
0.86
0.84
0.78
0.77
0.84
0.94
0.94
1
1.02
0.95
0.9
0.93
0.96
0.95
0.93
0.96
0.98
0.92
0.86
0.88
0.92
0.97
0.95
1
1.03
1
1.01
1.03
1.01
0.94
0.93
0.96
0.98
0.89
0.86
0.87
0.89
0.99
0.97
1.03
1.04
1.04
0.97
0.97
0.97
0.86
0.8
0.81
0.83
0.89
0.92
0.92
0.95
0.93
0.96
0.86
0.83
0.81
0.78
0.74
0.74
0.74
0.83
0.96
0.92
0.98
0.99
1.02
0.93
0.91
0.89
0.87
0.88
0.84
0.88
0.91
0.94
0.89
0.8
0.81
0.92
1.06
0.99
0.92
0.96
0.99
0.96
0.91
0.85
0.83
0.88
0.96
1.01
1.02
0.93
0.89
0.88
0.86
0.81
0.78
0.77
0.83
0.88
0.88
1.02
1.02
0.99
0.91
0.87
0.87
0.86
0.9
0.89
0.86
0.94
1
1
0.96
0.99
0.99
0.98
0.91
0.91
0.93
0.95
0.97
0.91
0.96
0.96
0.97
0.87
0.83
0.83
0.81
0.79
0.78
0.82
0.63
1.2
0.69
0.93
0.75
0.73
0.74
0.71
0.7
0.7
2.08
0.7
0.69
0.66
0.71
0.66
1.44
0.72
0.74
0.79
0.28
0.45
0.88
0.83
0.81
0.79
0.79
0.91
0.96
0.97
0.99
0.97
0.94
0.86
0.9
0.95
1
1.02
0.96
0.99
1.01
0.98
0.92
0.86
0.93
1.02
1.06
1
0.97
0.96
0.95
0.91
1.01
1.07
1.07
1.05
1.06
1.04
1.01
0.96
0.99
1
0.96
0.94
0.98
1.01
1.01
0.98
1
1.01
0.96
0.86
0.86
0.86
0.94
0.99
0.98
1.12
1.13
1.09
1.06
1.05
1.03
0.97
0.91
0.92
0.95
0.95
0.91
0.92
0.96
0.99
1.02
1.01
1
1
0.95
0.9
0.92
0.93
0.91
0.86
0.89
0.92
0.85
0.82
0.86
0.84
0.87
0.95
0.99
0.94
0.87
0.88
0.89
0.89
0.87
0.95
0.98
0.98
0.93
0.98
0.98
0.92
0.91
0.95
0.99
0.94
0.95
0.95
0.97
0.92
0.94
0.95
0.94
0.9
1
1.04
1.02
1
1.03
1.04
0.97
0.92
0.92
0.92
0.9
0.86
0.88
0.92
0.94
0.92
0.98
1.01
0.93
0.92
0.94
0.96
0.92
0.92
0.96
0.94
0.9
0.93
0.95
1.01
0.94
0.97
1.01
1.02
1.01
0.98
1
1.01
1
0.91
0.86
0.9
1.04
1.07
1.02
1.08
1.06
1.05
1.01
1
0.99
0.97
0.94
0.9
0.89
0.91
0.87
0.85
0.91
0.89
0.8
0.8
0.85
0.85
0.89
0.94
0.94
0.86
0.87
0.85
0.84
0.83
0.87
0.9
0.92
0.89
0.9
0.94
0.98
0.92
0.91
0.84
0.79
0.65
0.92
0.78
0.77
0.74
0.74
0.77
0.79
0.81
0.78
0.76
0.76
0.82
0.94
0.93
0.91
0.97
1.01
1.02
0.98
0.92
0.97
1.04
1.06
1.05
0.95
0.91
0.88
0.83
0.78
0.77
0.79
0.85
0.85
0.92
0.97
0.95
0.85
0.92
0.97
0.98
0.91
0.9
0.9
0.9
0.84
0.85
0.81
0.77
0.78
0.88
0.86
0.92
0.96
0.96
0.89
0.9
0.93
0.97
0.93
0.98
1
1
0.96
0.95
0.97
0.95
0.91
0.87
0.85
0.87
0.87
0.86
0.91
0.94
0.91
0.88
0.94
0.97
0.96
0.95
0.97
0.95
0.9
0.91
0.87
0.82
0.77
0.75
0.78
0.86
0.87
0.95
1.03
1.04
0.98
0.98
0.95
0.95
0.87
0.87
0.88
0.9
0.9
0.87
0.95
1.01
1.03
0.95
0.98
1.01
1
0.95
0.99
1.01
0.95
0.95
0.97
0.97
0.9
0.83
0.83
0.85
0.91
0.9
0.91
1.05
1.09
1.03
1.04
1.01
0.97
0.91
0.9
0.91
0.98
0.95
0.88
0.96
1
1
0.92
0.87
0.87
0.9
0.87
0.86
0.91
1
0.95
0.87
0.86
0.81
0.77
0.77
0.82
0.88
0.9
0.97
1.02
0.92
0.85
0.81
0.82
0.88
0.85
0.93
0.98
0.99
0.88
0.88
0.84
0.82
0.78
0.8
0.79
0.79
0.83
0.81
0.84
0.89
0.92
0.9
0.86
0.87
0.88
0.89
0.85
0.86
0.89
0.9
0.91
0.93
0.98
1.01
0.98
0.99
0.98
0.98
0.93
0.97
1.01
1.02
0.95
0.97
0.99
0.99
0.92
0.9
0.83
0.77
0.77
0.83
0.86
0.83
0.94
1.02
1.04
0.94
0.91
0.92
0.96
0.95
0.99
1.04
1.05
0.98
0.97
0.97
0.93
0.9
0.96
1.03
1.03
1.01
1
1
1.01
0.98
1
1.01
1
0.95
0.96
0.97
0.96
0.92
0.93
0.93
0.94
0.89
0.9
0.93
0.9
0.82
0.84
0.81
0.79
0.77
0.81
0.87
0.86
0.9
0.92
0.92
0.88
0.84
0.87
0.89
0.89
0.91
0.97
0.98
0.91
0.95
0.98
0.94
0.88
0.9
0.91
0.88
0.92
0.98
0.98
0.91
0.94
0.98
0.97
0.97
0.99
0.97
0.89
0.86
0.87
0.94
0.97
0.94
0.95
0.93
0.94
0.88
0.93
0.93
0.94
0.9
0.96
0.95
0.93
0.9
0.93
0.97
0.97
0.93
0.97
0.97
0.96
0.87
0.88
0.89
0.92
0.89
0.92
1.01
1.05
1.02
1.01
1.02
0.97
0.93
0.93
0.96
0.97
0.93
0.96
0.97
0.94
0.91
0.89
0.88
0.93
0.93
0.97
1.08
1.09
1.05
0.94
0.96
0.98
0.99
0.97
1
1.01
1.02
0.98
0.98
1
0.99
1.01
1.02
1.01
0.97
0.97
0.97
0.96
0.95
0.95
0.97
0.99
0.95
0.96
0.96
0.97
0.93
0.92
0.92
0.93
0.92
0.88
0.92
0.98
1.03
1.01
1.06
1.04
1.03
0.98
0.98
0.98
0.94
0.94
0.91
0.87
0.83
0.81
0.86
0.82
0.8
0.92
1.09
1.04
1.13
1.12
1.11
0.99
0.96
0.92
0.89
0.84
0.88
1.03
1.07
1
0.99
1.01
1.04
1.03
0.96
0.98
0.99
0.99
0.97
1
1.02
1.03
1
1.01
1.03
1.02
1
1.01
1.01
1
0.97
0.96
0.96
0.95
1.05
1.09
1.08
1.07
1.06
1.04
1.03
1.04
1.05
1.02
0.99
0.97
0.89
0.82
0.89
1.03
1.1
1.05
1.1
1.12
1.07
1.07
1.05
1.02
1.01
1
0.96
0.95
0.94
0.94
0.98
0.99
1.02
1.05
1.07
1.03
1.05
1.04
1.01
0.97
0.97
0.99
1.02
1
1.01
1.07
1.09
1.02
1.01
1
0.99
0.97
1
1.02
1.05
1.01
1.01
1.02
1.03
1.01
1.01
1.04
1.05
1.05
1.04
1.03
0.98
0.99
1
1
0.98
1
1.01
1.03
0.99
0.99
1.01
0.99
0.95
0.85
0.88
0.95
1.1
1.07
1.12
1.12
1.09
1.08
1.06
1.03
0.98
0.98
0.98
0.98
0.93
0.94
0.95
0.94
0.9
0.92
0.96
1
1
0.96
1.01
1.02
1.01
1.05
1.11
1.11
1.05
1.05
1.02
1
0.96
1
1.04
1.03
0.98
1
1.03
1.03
1
1.02
1.01
1.02
1.07
1.16
1.13
1.14
1.14
1.12
1.06
1.05
1.03
0.95
0.91
0.94
0.96
0.93
0.92
0.96
0.99
0.96
0.88
0.88
1.02
1.15
1.11
1.07
1.14
1.12
1.1
1.09
1.06
0.99
1
1.01
1.01
0.96
0.95
1.01
1.03
1.04
0.99
1.04
1.09
1.09
1.03
1.09
1.11
1.06
1.04
1.03
1.04
1.02
0.98
1.03
1.03
1
1.02
1
1
0.94
0.96
0.96
0.99
0.97
1
1.03
1.04
1.01
1.04
1.03
1.02
0.98
0.98
1.03
1.08
1.06
1.03
1.03
1.06
1.05
0.99
0.94
0.92
0.96
0.96
1.03
1.06
1.02
0.97
1.02
1.05
0.99
0.97
0.98
1.06
1.01
1.05
1.09
1.05
0.99
0.97
0.96
0.91
0.95
0.98
1
0.96
0.96
1.01
1.05
1
0.99
1.03
1.06
1.04
1.07
1.04
1.02
0.96
0.97
0.97
1
0.95
0.97
0.98
0.97
0.99
0.99
0.94
0.96
0.97
0.94
1.06
1.07
1.03
1.03
1.06
1.05
1.01
1.04
0.99
0.96
0.91
0.98
1.05
1.06
1.01
1.03
1.05
0.99
0.97
0.99
0.92
0.86
0.89
0.95
0.97
1
1.1
1.11
1.06
0.99
0.97
0.99
1.01
0.99
1.03
1.06
1.01
1
1.01
1
0.94
0.97
1.02
1.03
0.98
1.01
1.05
1.03
1.01
1.05
1.07
1.07
0.97
0.95
0.95
0.94
1.02
1.12
1.11
1.05
1.05
1.08
1.07
1.02
0.98
0.94
0.95
1
1.06
1.02
1.07
1.05
0.98
1.01
1.05
0.99
1
1.01
1.02
0.93
0.93
0.96
1.02
1.03
1.08
1.11
1.08
1.06
1.09
1.1
1.06
1.04
1.05
1.02
0.98
0.94
0.96
0.98
0.93
0.96
1.01
1.03
1
0.94
1.01
1.08
1.07
1.01
1.03
0.97
1
0.96
0.93
0.96
1.02
1.02
1.06
1.08
1.04
1.02
1.04
1.05
0.99
0.95
0.88
0.87
0.95
1.03
1.02
1.02
1.06
1.07
1.01
1.01
1.03
0.96
0.92
0.95
1
0.97
1
1.05
1.07
1.02
0.95
0.94
0.99
0.99
0.93
0.92
1.02
1.03
0.89
0.82
0.8
0.79
0.83
0.85
0.91
0.93
0.86
0.99
1.04
0.96
0.98
1.01
0.97
0.92
0.98
0.99
0.94
0.86
0.84
0.88
0.93
0.96
0.96
0.96
1
1.01
0.93
0.87
0.82
0.79
0.76
0.78
0.76
0.76
0.77
0.75
0.75
0.74
0.78
0.79
0.75
0.76
0.78
0.79
0.82
0.79
0.78
0.76
0.77
0.79
0.77
0.83
0.88
0.95
0.93
0.95
1
1.03
0.95
0.98
1.02
1.05
1.04
0.98
1
0.96
0.87
0.83
0.89
0.94
1.04
1
1.09
1.16
1.13
1.02
1.04
1.08
1.09
1.06
1.08
1.07
1.05
1.06
1.03
1.01
0.96
0.99
0.97
0.95
0.96
1.03
1.01
0.94
0.96
0.95
1.02
0.98
1.03
1.1
1.13
1.07
1.05
1.06
1.08
1.04
1.06
1.12
1.1
1.02
1.03
1.01
1.02
1.02
1.12
1.14
1.1
1.08
1.03
0.95
0.94
1
1.06
1.05
0.99
0.97
1
1.05
1.15
1.2
1.21
1.13
1.13
1.07
1
0.97
0.96
0.95
0.92
0.91
0.98
0.99
1.05
1.16
1.12
0.99
1.01
1.08
1.13
1.1
1.16
1.16
1.12
1.08
1.09
1.09
1.07
1.02
0.98
0.97
0.94
0.9
0.88
0.89
1
1.08
1.08
0.98
0.93
0.86
0.8
0.82
0.87
0.94
0.93
0.92
0.85
0.8
0.78
0.76
0.76
0.74
0.75
0.81
0.82
0.87
0.96
0.96
0.95
0.9
0.93
0.98
1.01
1.01
0.97
1.05
1.07
1.05
0.95
0.88
0.94
1.13
1.22
1.12
1.1
1.07
1.05
1.02
1.1
1.13
1.06
1.07
1.08
1.06
1.03
1.04
1.02
1.02
0.99
1.01
1.08
1.08
1.08
1.06
1
0.95
1.04
1.09
1.06
1.02
0.98
0.97
0.95
1
1.02
0.99
0.94
1
1.1
1.1
0.97
0.93
0.96
1.03
1.03
1.19
1.18
1.16
1.12
1.11
1.08
1.07
1.02
1.04
1.07
1.03
0.99
0.98
1
1
0.99
1
1
1.01
1.01
1.09
1.12
1.11
1.04
1.05
1.06
1.04
0.99
0.94
0.99
1.01
0.95
0.99
0.99
0.94
0.85
0.8
0.73
1.52
0.9
0.84
0.93
1.07
0.94
0.88
0.83
0.81
0.82
0.77
0.66
0.85
0.75
0.75
0.75
0.77
0.79
0.8
0.81
0.79
0.81
0.81
0.85
0.88
0.82
0.81
0.79
0.78
0.83
0.84
0.85
0.83
0.9
0.92
0.9
0.85
0.91
0.95
1
0.97
0.93
0.97
0.94
0.92
0.88
0.93
0.96
0.99
0.99
1.05
1.08
0.98
0.91
0.95
1.03
1.08
1.02
1.05
1.03
1.04
0.94
0.9
0.94
1.08
1.04
0.94
0.99
1.06
1.1
1.08
1.08
1.11
1.06
0.95
0.92
0.91
0.95
0.99
1.01
1.1
1.11
1.09
1.04
1.01
1
0.94
0.92
0.9
0.98
1.01
1.07
1.07
1.01
0.97
1
1.05
1.07
0.98
1
1.07
1.07
1.09
1.09
1.06
1.03
1.02
0.97
0.92
0.98
1.06
1.1
1.08
1.1
1.08
1.06
1.09
1.1
1.06
1.03
1.04
0.99
0.93
0.86
0.9
0.99
1.06
1.04
1.11
1.1
1.1
1.03
0.98
0.99
0.97
0.92
0.85
0.88
0.96
1.11
1.09
1.12
1.14
1.1
1.07
1.06
1.03
0.98
0.87
0.89
0.84
0.84
0.83
0.88
1.06
1.2
1.22
1.23
1.22
1.14
1.12
1.06
1.07
1.1
1.09
1.01
0.97
0.98
1.01
0.96
1.04
1.07
1
0.95
1.01
1.05
1.02
1.01
1.03
1.05
0.98
1.04
1.1
1.1
1.09
1.06
0.98
0.92
0.92
1.02
1.09
1.05
1.1
1.09
1.07
1.06
1.12
1.16
1.09
1.07
1.05
1
0.92
0.93
0.95
0.91
0.97
1
1.01
0.97
0.96
1.01
1.04
1.04
1.04
1.07
1.06
1.04
1.06
1.01
0.96
1.01
0.97
0.91
0.87
0.94
1.1
1.11
1.15
1.14
1.11
1.07
1.04
0.99
0.9
0.9
0.92
1.01
1.02
1.06
1.1
1.09
1.01
1.03
1.05
1.04
0.98
0.96
0.98
1.03
1
1.03
1.06
1.05
0.97
0.93
0.94
0.94
0.93
0.98
1.04
1.09
1.06
1.1
1.12
1.09
1.01
0.98
0.96
1
1
1.07
1.12
1.09
1.04
1.04
1.05
1.02
1.01
1.01
1.05
1.02
1.06
1.09
1.1
1.07
1.07
1.03
1.02
0.99
0.97
0.94
0.91
0.96
1.03
1.05
1.03
1.05
1.08
0.99
0.95
0.95
0.95
0.93
0.91
0.97
1.07
1.04
1.06
1.07
1.03
1.03
1.05
1.03
1
1.02
1.03
0.97
0.92
0.96
1.02
0.99
0.95
0.97
0.99
0.98
0.97
1.02
1.04
1.02
0.99
0.99
0.98
0.98
0.95
0.95
0.95
0.96
0.94
0.9
0.95
0.95
0.94
0.98
1.02
1.02
1.03
1.07
1.09
1.04
1.05
1.05
1.05
1.03
1.02
1.05
1.04
0.94
0.94
0.97
1
1
1.02
1.02
1.01
0.96
0.97
0.95
0.93
0.94
0.98
0.94
0.92
0.98
1.05
1.03
0.98
1.04
1.06
1.04
1.02
1.03
1.01
0.97
0.99
1
0.99
0.9
0.91
0.97
0.99
0.96
0.99
1.03
1.05
1.03
1.05
1.05
1.04
1
1.01
0.97
0.92
0.88
0.91
0.96
0.97
0.94
0.95
1
1.01
0.97
0.98
1
0.99
0.94
0.94
0.95
0.96
1.01
1.03
1.06
0.98
0.98
0.99
1
0.97
0.99
1.04
1.07
1.03
1.05
1.06
1.06
1
1.01
1.02
1.02
0.97
1
1.05
1.03
0.98
0.97
0.98
0.97
0.97
1
1.01
0.97
1.02
1.05
1.03
1.03
1.01
0.96
0.94
0.96
1
0.99
0.99
1.03
1.02
0.96
0.94
0.98
0.99
0.95
0.98
1.02
0.99
0.95
0.97
0.98
0.93
0.96
0.97
0.97
0.95
1
1.01
0.97
0.94
0.91
0.9
0.84
0.81
0.88
0.95
0.96
1.06
1.17
1.12
1.1
1.12
1.1
1.09
1.04
1.01
0.97
1
1.03
1.07
0.99
0.99
1.02
1.04
1.02
1.03
1.04
1.03
1.03
1.05
1.05
1.06
1.07
1.06
1
0.96
0.99
0.96
0.94
1
1.02
0.97
0.99
1.03
1.02
1.04
1.05
1.01
0.95
0.98
1.04
0.98
1
0.99
1
0.97
0.98
1.01
0.97
0.9
0.92
0.93
0.94
0.89
0.87
0.99
1.17
1.13
1.17
1.16
1.1
1.07
1.06
1
0.92
0.91
0.94
0.92
0.96
1
1
0.97
0.97
0.99
0.96
1.02
1.02
1.02
1
1.02
0.99
0.96
0.89
0.91
0.94
0.94
0.94
1.03
1.03
1
1.02
1.01
0.99
1.01
1.05
1.07
1.01
0.95
0.93
0.92
0.88
0.85
0.89
0.98
1
1.11
1.2
1.2
1.14
1.15
1.11
1.04
1.01
1
0.97
0.95
1
0.99
0.97
0.98
1.01
0.98
0.95
1
1.07
0.98
0.96
0.99
1.03
1.01
1.05
1.07
1.01
1.01
1.06
1.05
1
0.99
0.96
0.96
1
0.99
1.09
1.1
1.06
1.01
1.06
1.05
1
1
0.99
0.98
0.99
0.99
0.98
1.01
0.97
0.97
0.98
0.96
0.93
0.96
1
1
1.03
1.06
1.04
0.97
0.99
0.97
0.96
1
0.98
0.98
1
1.04
1
1
1.03
1.03
1
0.99
1
1.01
0.99
1.01
1.06
1.08
1.04
1.05
1.06
1.02
1.02
1.01
1.04
1.02
0.98
1.02
1.02
0.96
0.95
0.94
0.94
0.92
0.95
1.01
0.99
0.95
0.97
0.99
0.96
0.94
0.93
0.96
0.95
0.94
1
1.04
1.07
0.97
0.99
0.99
0.99
0.97
0.99
0.98
0.96
0.98
1.01
1.03
0.96
0.98
1
0.98
1
1
1.04
0.99
1.03
1.03
1.01
0.98
0.99
0.99
0.97
0.95
1
1.02
0.97
0.99
1.03
1.02
0.99
1.05
1.07
1.03
1.03
1.03
1.03
0.96
0.97
1
1
0.96
0.99
1
1.04
0.99
1.02
0.98
0.93
0.88
0.89
0.94
0.92
0.94
1
0.98
0.93
0.91
0.92
0.95
0.93
0.97
0.98
0.96
0.91
0.94
0.97
0.93
0.88
0.9
0.94
0.94
0.99
1.02
1.04
0.98
1
1.01
0.95
0.95
0.95
0.96
0.94
0.98
1.05
1.02
1
1.01
1.01
0.95
0.93
0.97
1.05
0.97
0.98
0.99
0.99
0.94
0.98
1.03
1.01
1.05
1.06
1.02
0.97
0.96
0.95
0.91
0.93
0.99
1.02
1.02
1.06
1.07
1.03
1.06
1.05
1
0.99
1.01
1.01
0.97
0.98
1.01
1.05
1
1.01
1.05
1.04
0.98
0.96
0.94
0.97
0.94
0.96
1
0.97
0.95
0.97
0.99
0.96
0.96
0.98
0.97
0.97
1.02
1.02
0.95
0.97
0.97
1
1
0.98
1.02
1.03
0.99
0.99
1
0.98
0.96
0.98
1.01
0.97
0.99
0.99
0.97
0.97
1
0.95
0.89
0.89
0.93
0.94
0.96
1
0.98
0.96
1
1.01
0.95
0.9
0.94
0.95
0.91
0.95
0.95
0.93
0.96
0.96
0.97
0.94
0.95
0.97
0.95
0.94
0.97
0.96
0.96
0.96
0.98
0.98
0.95
0.94
0.95
0.93
0.93
0.96
0.97
0.95
0.95
0.98
1.01
0.99
0.97
1.01
1.01
0.99
0.98
0.98
0.99
0.95
0.96
0.97
0.96
0.97
1.05
1.07
1.02
0.99
1.03
1.02
0.98
0.96
0.98
1
1
0.96
1.01
1
0.99
0.95
0.98
1
0.98
0.97
1
1.01
0.97
0.99
1.02
1.02
1
1.04
1.03
1
0.97
1.03
1.02
0.98
0.97
0.97
0.97
0.93
0.9
0.94
0.99
1.01
1.02
1.05
1.05
1
0.97
1
1
0.95
0.94
0.97
0.98
0.95
0.95
0.97
0.98
0.93
0.92
0.94
0.95
0.98
1.01
1.02
0.99
0.99
1
0.94
0.94
0.96
0.95
0.93
0.93
0.95
0.98
0.98
0.99
1.03
1.05
1
0.96
0.97
0.96
0.94
0.94
0.97
1.01
0.96
0.97
0.97
0.99
0.98
0.98
1.01
0.99
0.96
0.92
0.93
0.95
0.93
0.95
0.98
0.98
0.98
0.97
0.98
1
0.96
0.98
1
0.95
0.94
0.95
0.97
0.97
1
1.02
1.01
0.98
1.01
1.02
0.99
1.02
1.05
1.05
0.99
0.99
1.01
0.99
0.94
0.95
0.96
0.97
1.02
1.01
1
1.06
1.02
0.97
0.97
0.96
0.92
0.95
0.96
0.96
0.92
0.93
0.98
0.98
0.95
0.96
1
0.99
0.94
0.99
0.99
1
0.98
0.99
0.99
0.95
0.9
0.96
0.95
0.94
0.98
1.03
1
0.97
1
1.01
0.97
0.94
0.96
1
0.95
0.93
0.98
1
0.99
0.96
0.98
1
0.97
0.99
1.02
0.98
0.95
0.97
0.99
0.96
1.04
1.05
1.07
1.01
1.03
1.02
0.98
0.95
0.97
0.98
0.95
0.95
0.97
0.99
0.97
1.01
1.03
1.04
1
1
1.02
0.95
0.92
0.91
0.92
0.92
0.91
0.98
1
1
1.04
1.01
0.98
0.97
1.01
1.02
0.97
0.98
1.01
1
0.94
0.95
0.98
0.99
0.95
0.97
0.97
0.98
0.93
0.95
0.97
0.95
0.91
0.92
0.95
0.99
0.98
0.97
0.99
1.01
1
1.02
1
0.96
0.97
0.95
0.94
0.96
0.99
0.99
0.99
1.03
1.01
0.97
0.97
0.96
0.97
0.97
1
1
0.97
0.97
0.97
0.94
0.95
0.99
0.98
0.95
0.96
1.01
1
0.98
1.01
1.04
0.98
0.95
0.96
0.96
0.94
0.98
1
0.97
0.96
1
1.02
0.99
0.94
0.96
0.99
0.97
0.97
0.98
0.99
0.95
0.96
0.96
0.95
0.93
0.97
1.03
1.01
1.03
1.07
0.99
0.94
0.95
0.95
1
0.99
1
1.02
1.01
0.96
0.95
0.95
0.93
0.92
0.96
0.95
0.94
0.95
0.99
0.94
0.95
0.97
1
0.98
1.01
0.97
0.96
0.99
0.99
0.97
0.93
0.95
0.98
0.97
0.94
0.94
0.97
0.99
0.93
0.94
0.98
0.97
0.96
0.97
0.95
0.94
0.94
0.94
0.93
0.96
1.01
1.01
0.96
0.97
0.99
1
0.96
0.97
0.96
0.94
0.91
0.93
0.94
0.96
0.91
0.9
0.94
0.98
0.98
1
1
0.96
0.95
0.94
0.91
0.93
0.98
1.01
0.96
0.97
0.96
0.98
0.95
0.98
0.99
1
0.96
0.98
1.05
1.02
0.98
0.99
0.99
0.96
0.97
0.99
0.97
0.97
0.97
0.94
0.91
0.95
0.98
0.92
0.93
0.95
0.95
0.93
0.96
1.01
1
0.95
0.98
0.96
0.94
0.92
0.96
1.02
1.01
1.02
1
0.96
0.88
0.81
0.78
0.74
0.72
0.7
0.72
0.8
0.77
0.76
0.78
0.82
0.81
0.81
0.76
0.73
0.71
0.71
0.7
0.71
0.73
0.75
0.84
0.91
0.94
0.89
0.81
0.78
0.74
0.74
0.74
0.75
0.75
0.62
0.84
0.73
0.67
1.84
1.4
0.63
0.63
0.63
0.62
0.63
0.62
0.62
0.61
0.61
0.61
0.61
0.62
0.63
0.63
0.64
0.65
0.71
0.79
0.79
0.76
0.79
0.88
0.93
0.88
0.9
0.99
0.97
0.93
0.91
0.93
0.96
0.92
0.93
0.95
0.93
0.89
0.88
0.82
0.76
0.75
0.74
0.77
1.49
0.74
0.74
0.72
0.72
0.71
0.7
0.7
0.71
0.73
0.77
0.83
0.91
0.92
0.93
0.92
0.94
0.97
0.94
0.99
1.04
1.06
1.03
1.07
1.07
0.97
0.9
0.92
0.96
0.98
0.96
0.96
1.01
1.03
1.02
1.06
1.04
1.02
0.95
0.96
0.98
0.97
0.93
0.93
0.97
0.97
0.94
0.97
0.96
0.91
0.87
0.86
0.88
0.83
0.79
0.78
0.81
0.88
0.89
0.96
0.99
1
0.96
0.95
0.98
0.98
1
1.03
1.04
1.01
1.01
1.04
1.02
1
1.05
1.06
1
1
0.96
0.98
0.96
1.01
0.97
1
0.95
1.01
1.06
1.04
1
1
0.99
0.93
0.88
0.89
0.93
0.92
0.96
1.02
1.03
0.99
0.98
0.97
0.97
0.97
1
0.99
0.96
0.91
0.87
0.89
0.95
0.94
0.94
0.95
0.95
0.98
1.07
1.09
1.08
1.12
1.09
1.05
1.06
1.04
0.97
0.95
0.91
0.87
0.85
0.88
0.89
0.94
0.99
1.12
1.15
1.11
1.13
1.12
1.08
0.99
0.98
0.97
0.94
0.88
0.88
0.88
0.86
0.83
0.82
0.84
0.96
1.06
1.01
0.95
0.96
1
0.99
0.99
1.01
1.01
0.96
0.93
0.93
0.93
0.92
0.86
0.89
0.95
0.94
0.93
0.95
1.01
1.01
0.98
0.95
0.93
0.94
0.9
0.83
0.82
0.8
0.77
0.76
0.77
0.8
0.82
0.86
0.96
0.97
0.94
0.9
0.87
0.87
0.9
0.87
0.83
0.82
0.8
0.81
0.83
0.87
0.87
0.92
0.95
1.01
1
0.98
0.99
1
1
0.95
0.98
0.99
0.96
0.97
0.92
0.88
0.83
0.84
0.8
0.77
0.78
0.83
0.9
0.93
1.01
1.03
1.03
1.01
1.01
1.02
0.95
0.87
0.89
0.91
0.96
0.96
1
1.03
1.04
0.99
0.97
0.93
0.9
0.95
0.93
0.92
0.94
0.96
0.93
0.96
1.01
0.99
0.96
0.94
0.97
0.92
0.83
0.81
0.79
0.79
0.77
0.76
0.78
0.8
0.83
0.91
0.99
1
0.97
0.98
0.97
0.97
0.95
0.98
1
1
1.02
1.04
1.01
0.98
1
1.03
0.99
1.02
0.99
0.96
0.93
0.99
1.03
0.97
0.94
0.97
1.03
1.02
0.95
0.93
0.96
0.99
1
0.94
0.95
0.96
0.94
1
1.07
1.02
1.02
1.01
0.95
0.88
0.87
0.86
0.89
0.88
0.93
0.99
0.99
0.97
0.95
0.94
0.89
0.88
0.87
0.87
0.9
0.96
0.95
0.93
0.88
0.9
0.96
1.02
1.03
1.09
1.1
1.09
1.04
1.03
1.01
1
0.95
0.95
0.97
0.97
0.94
0.95
0.96
0.98
0.96
1
1.05
1
1
1
0.96
0.94
0.97
0.96
0.95
0.99
1.02
0.96
0.94
0.89
0.87
0.84
0.82
0.87
0.94
0.99
1.06
1.11
1.11
1.03
1.03
1.04
0.99
0.98
0.98
0.99
0.93
0.9
0.93
0.95
0.97
0.92
0.87
0.88
0.87
0.85
0.87
0.84
0.8
0.82
0.93
0.98
1
1.06
1.08
1.05
1.07
1.04
0.98
1
1.01
0.97
0.98
0.99
1
0.96
0.95
0.92
0.93
0.92
0.99
1.08
1.14
1.08
1.03
1.06
1.02
0.99
0.99
0.99
0.96
0.95
0.95
1.02
1.02
0.99
0.96
0.99
0.98
0.95
0.91
0.97
1.01
1.03
0.98
0.89
0.89
0.9
0.89
0.92
0.95
1.03
1.05
1.17
1.18
1.1
1.09
1.07
1.03
0.99
0.99
0.96
0.94
0.93
0.96
0.96
0.96
0.97
1
0.98
0.95
0.95
0.99
0.97
0.97
1
1
0.97
0.94
0.95
0.94
0.93
0.99
1.09
1.09
1.02
0.97
0.94
0.88
0.89
0.87
0.84
0.83
0.87
0.96
0.96
0.91
0.91
0.87
0.82
0.86
0.94
1.05
1.14
1.11
1.08
1.07
1.05
1
1.02
1.04
1.01
0.98
1.01
1.01
0.99
1
1.02
1
0.99
1.01
1
0.93
0.89
0.93
1
1.01
1.02
1.05
1.05
1
1.05
1.04
1.05
0.98
1
1.05
1.03
0.99
0.95
0.93
0.94
0.89
0.92
0.95
0.97
0.96
0.99
1.02
1.01
0.99
1.01
1.02
0.97
0.94
0.95
0.97
0.98
0.98
0.94
0.89
0.91
0.96
1
0.96
0.99
1.04
1.01
1.02
1.02
1.02
0.98
0.96
0.95
0.93
0.89
0.93
1
1.01
0.99
1
1.01
0.95
0.97
0.97
0.91
0.87
0.86
0.85
0.81
0.82
0.87
0.85
0.81
0.86
0.95
1.02
1.15
1.16
1.08
1.09
1.07
1.03
1.05
1.06
1.01
1.02
1.03
1.07
1.03
1.06
1.08
1.02
0.94
0.89
0.92
1.01
1.03
1.13
1.16
1.13
1.15
1.12
1.05
1.05
1.06
1.02
1.03
1.03
1
0.98
0.97
0.99
1.02
0.98
1.03
1.01
0.95
0.87
0.88
0.96
1.09
1.17
1.17
1.26
1.19
1.13
1.1
1.05
1.01
1.01
1.01
0.98
0.97
1.01
1.03
1.03
0.99
1.01
1.04
1.04
1.01
1.05
1.03
1.03
0.98
1.01
1.02
1.01
0.97
0.99
1.01
0.96
0.91
0.91
0.89
0.83
0.84
0.88
0.91
1.01
1.18
1.17
1.08
1.1
1.08
1.03
1.01
1.03
1
0.94
0.96
0.98
0.99
0.96
0.94
0.95
0.91
0.9
0.9
0.89
0.86
0.89
1.02
1.08
1.13
1.22
1.22
1.14
1.06
1
0.9
0.86
0.85
0.79
0.78
0.81
0.94
1.18
1.26
1.21
1.17
1.17
1.13
1.08
1.08
1.06
1.05
0.99
1.01
1.03
1
0.96
0.99
1.03
1
1.06
1.03
0.96
0.87
0.88
0.96
1.05
1.09
1.18
1.24
1.18
1.2
1.17
1.08
1.08
1.06
1
0.93
0.95
0.97
0.98
0.95
0.98
0.98
0.96
1.01
1.01
1
0.96
0.99
1
0.95
0.93
0.97
1
0.96
1.01
1.05
1
0.97
0.93
0.95
0.96
0.92
0.9
0.87
0.81
0.8
0.82
0.91
1.02
1.16
1.14
1.04
0.91
0.9
0.93
1.02
1
1.1
1.14
1.06
1.04
1.05
1.02
0.96
0.94
0.9
0.89
0.91
0.95
0.98
0.99
1.11
1.21
1.19
1.12
1.14
1.12
1.08
1.01
0.99
0.91
0.85
0.9
0.95
0.95
0.9
0.98
1.08
1.08
1.15
1.19
1.13
1.09
1.1
1.1
1.04
1.03
1.02
0.99
1.01
1.04
1.02
0.97
0.95
0.99
1
0.97
1
1.01
1
0.94
0.94
0.95
0.91
0.85
0.83
0.85
0.81
0.79
0.77
0.79
0.94
1.03
1.2
1.21
1.11
1.14
1.15
1.1
1.07
1.07
1.02
1.01
1.02
1.02
0.97
0.98
1.02
1.05
1.02
0.99
1.05
1.09
1.05
0.98
0.98
0.99
0.95
0.96
0.99
0.97
0.96
0.97
0.95
0.92
0.92
0.95
0.92
0.99
1.04
1.03
0.99
1
1.01
0.97
0.91
0.88
0.84
0.85
0.97
1.15
1.14
1.1
1.09
1.06
0.97
0.94
1.05
1.14
1.08
1
1.07
1.1
1.07
1
1.01
1.01
0.96
0.91
0.95
1.02
1.12
1.07
1.07
1.12
1.09
1.05
1.06
1.04
0.98
0.96
0.98
0.98
0.96
0.99
1.01
1.04
1
0.97
0.98
1.01
0.98
0.93
0.94
0.96
0.97
0.95
1
1.04
1
0.98
0.99
1.03
0.96
0.92
0.91
0.95
0.95
0.91
0.9
0.87
0.85
0.92
1.06
1.08
1.11
1.12
1.07
1.08
1.11
1.11
1.04
1.03
1.04
1
0.99
1.03
1.03
0.98
1
1.05
1.02
1.02
1.04
1.03
0.98
0.99
0.98
0.98
0.97
0.99
0.99
0.96
0.96
0.93
0.93
0.92
0.92
0.98
1.05
1.06
1.09
1.09
1.02
1.01
1.04
0.99
1.04
1.07
1.08
1.01
0.97
0.96
0.95
0.94
0.98
1.05
1.02
0.97
0.95
0.92
0.9
0.97
1.08
1.06
1.05
1.07
1.03
0.97
1.01
1.08
1.1
1.09
1.1
1.16
1.09
1.06
1.06
1.03
1
1.02
1.02
0.99
0.93
0.94
0.99
0.98
1.02
1.07
1.06
0.99
1.03
1.03
0.97
0.96
0.91
0.89
0.86
0.9
1.05
1.11
1.07
1.06
1.01
0.93
0.91
0.96
1.03
0.98
1.02
1.06
1.06
0.98
0.96
0.95
0.91
0.91
0.97
1.05
1.02
1.05
1.06
1.05
0.97
0.96
1.01
1.03
0.98
0.97
1
0.99
0.94
0.95
0.96
0.95
0.9
0.92
0.94
0.93
0.95
0.94
0.94
0.88
0.9
1.04
1.11
1.06
1.09
1.11
1.03
1.06
1.06
1.01
0.99
1.02
1.04
0.98
0.96
0.99
1.04
1.01
0.99
0.95
0.94
0.91
0.91
1.02
1.05
1.06
1.01
1.04
1.06
1.05
0.99
0.97
0.95
0.98
0.96
0.97
0.96
0.94
0.89
0.85
0.86
0.93
0.96
1.12
1.2
1.14
1.09
1.14
1.08
1.02
1.03
1.03
0.96
0.91
0.95
0.95
0.91
0.91
0.94
0.98
0.96
0.98
1.02
1.03
0.98
0.93
0.96
0.96
0.97
0.95
1
1.07
1.03
1
0.94
0.97
1
0.96
0.98
1.03
1.04
0.96
0.98
1
0.97
0.91
0.93
0.94
0.95
0.95
0.99
0.99
0.96
1
1.03
0.97
0.97
0.96
0.96
0.93
0.96
1.01
0.96
0.99
1.01
1.05
0.96
0.99
0.99
0.94
0.91
0.92
0.89
0.84
0.81
0.83
0.87
0.91
0.96
1.16
1.16
1.1
1.09
1.08
1.03
0.98
0.97
0.98
0.96
0.95
1
1
0.97
0.96
0.95
0.92
0.86
0.89
0.92
0.96
0.93
1.01
1.05
1.03
0.97
0.96
0.98
1.01
0.97
0.92
0.97
1.01
1
1
1.05
1.06
1.02
1.05
1.08
1.03
0.97
0.97
0.99
0.93
0.98
0.99
0.97
0.93
0.99
1
0.97
1
1.02
1.03
0.96
0.97
0.97
0.97
0.91
0.92
0.98
0.95
0.94
1.01
1.04
0.97
0.98
0.98
0.99
0.95
0.99
1.01
0.94
0.96
0.99
0.93
0.87
0.9
0.91
0.88
0.92
0.97
0.96
0.93
0.92
0.97
0.97
0.89
0.9
0.94
0.97
0.94
0.96
1.01
1.01
0.94
0.9
0.91
0.9
0.89
0.95
1.01
0.99
0.95
0.98
1.06
1.07
1.01
1.02
1
0.95
0.93
0.97
0.97
0.91
0.94
0.99
1
0.93
0.95
1.01
1
0.95
0.97
0.97
0.99
0.92
0.92
0.95
0.96
0.91
0.87
0.92
0.97
1
0.94
0.96
1
0.98
0.92
0.9
0.92
0.9
0.86
0.86
0.91
0.94
0.94
0.94
0.96
1.02
0.99
0.95
0.91
0.92
0.96
0.93
0.97
1.06
1.05
1
1.01
1.02
0.98
0.95
0.98
0.99
0.96
0.99
1.02
1
0.94
0.93
0.95
0.95
0.92
0.95
0.96
0.97
0.92
0.9
0.94
0.96
0.95
0.91
0.97
1.02
0.98
0.97
0.98
1.01
0.97
0.92
0.93
0.98
1
0.93
0.94
0.97
1
0.95
0.94
0.93
0.96
0.91
0.94
1.01
1
0.96
1
1.01
0.96
0.92
0.97
0.99
0.96
0.94
0.94
0.97
0.93
0.95
0.97
0.99
0.95
0.96
0.99
1
0.95
0.93
0.96
0.95
0.92
0.95
0.98
0.98
0.95
0.94
0.98
0.97
0.93
0.95
0.99
0.99
0.94
0.95
0.98
0.98
0.94
0.9
0.94
0.97
0.92
0.92
0.95
0.96
0.92
0.94
0.97
0.96
0.93
0.94
0.99
0.99
0.95
1.04
1.03
0.99
1
1.05
1.03
0.95
0.96
0.94
0.89
0.93
0.94
0.94
0.97
1
0.98
1.03
0.99
0.93
0.92
0.95
0.94
0.92
0.95
0.98
0.94
0.94
0.99
0.97
0.95
0.96
0.97
0.94
0.92
0.96
1
0.97
0.99
1.02
0.99
1
0.98
0.98
0.93
0.91
0.94
0.98
0.95
0.96
1.02
1.06
1.01
1.02
1.03
1.03
0.96
0.95
0.97
0.98
0.97
0.9
0.94
0.95
0.97
0.95
0.98
1
0.97
0.92
0.96
0.98
0.99
0.93
0.96
0.97
0.94
0.92
0.95
0.95
0.9
0.9
0.95
0.97
0.91
0.92
0.95
0.95
0.92
0.94
0.97
0.99
0.95
0.95
0.99
0.98
0.94
0.97
1.01
0.98
0.97
1.02
1.01
0.96
0.98
0.99
0.93
0.92
0.95
0.94
0.91
0.91
0.93
0.94
0.92
0.99
0.97
0.95
0.92
0.97
0.97
0.94
0.88
0.91
0.96
0.92
0.88
0.93
0.94
0.89
0.89
0.94
0.96
0.92
0.93
0.94
0.94
0.9
0.89
0.96
0.99
0.95
0.94
0.98
0.97
0.92
0.89
0.94
0.95
0.92
0.9
0.95
1.02
0.99
0.93
0.94
0.92
0.94
0.93
0.97
1.05
1.02
0.97
1.01
1.01
0.97
0.94
0.97
0.99
0.93
0.89
0.9
0.93
0.91
0.93
0.95
0.96
0.91
0.95
0.95
0.95
0.91
0.94
0.95
0.96
0.92
0.95
0.99
1.01
0.95
0.97
1.03
1.04
0.98
0.97
0.98
0.99
0.91
0.9
0.96
0.98
0.92
0.95
1
1.02
0.96
0.94
0.97
0.99
0.92
0.93
0.97
0.97
0.91
0.88
0.92
0.93
0.96
0.9
0.96
1
1.02
0.99
1.05
1.06
1.01
0.92
0.93
0.94
0.88
0.87
0.94
0.97
0.93
0.95
1
0.99
0.93
0.93
0.95
0.95
0.89
0.9
0.95
0.99
0.94
0.91
0.93
0.97
0.98
0.95
1.01
1.05
1.03
0.99
1
1.02
0.97
0.93
0.95
0.97
0.94
0.88
0.88
0.92
0.94
0.91
0.93
0.94
0.96
0.91
0.94
0.96
0.98
0.93
0.94
1
1.02
0.97
0.95
0.99
0.99
0.93
0.95
0.96
0.95
0.91
0.92
0.94
0.93
0.9
0.86
0.9
0.93
0.94
0.91
0.97
1
1.03
0.98
0.99
1.03
1.02
0.96
0.96
0.92
0.94
0.89
0.89
0.96
1.01
0.95
0.99
1.03
1.02
0.96
0.9
0.88
0.87
0.85
0.92
0.91
0.81
0.77
0.75
0.76
0.8
0.88
0.92
0.9
0.83
0.79
0.79
0.77
0.77
0.75
0.76
0.74
0.5
3.03
0.38
0.27
0.53
0.74
0.63
0.63
0.63
0.51
0.74
0.62
0.64
0.67
0.79
0.91
0.9
0.89
0.87
0.79
0.81
0.78
0.78
0.75
0.73
0.75
0.83
0.9
0.89
0.88
0.91
1.73
0.79
0.62
0.89
0.71
0.71
0.7
0.68
0.68
0.7
0.69
0.7
0.69
0.7
0.72
0.72
0.75
0.78
0.85
0.92
0.89
0.91
0.96
0.96
0.88
0.89
0.9
0.95
0.92
0.89
0.91
0.97
0.92
0.88
0.9
0.94
0.94
0.87
0.89
0.94
0.98
0.94
1.01
1.06
1.08
1.05
0.98
0.95
0.98
1.05
1.05
0.99
0.95
0.92
0.92
0.89
0.89
0.93
1
0.99
1.03
1.05
1.05
0.98
0.97
0.99
1
0.94
0.99
1.03
1
0.92
0.89
0.93
0.99
0.97
0.95
1.04
1.13
1.08
1.06
1.07
1.09
1.05
1.07
1.08
1.05
1.02
0.98
0.99
0.97
1.04
1.12
1.08
1.06
1.07
1.06
0.98
0.96
0.96
0.92
0.89
0.9
0.86
0.81
0.89
1.14
1.12
1.18
1.15
1.03
1
0.96
0.91
0.91
0.98
1.01
1.04
1
1.04
1.07
1.02
0.94
0.96
1.03
1.03
1
0.98
0.98
0.97
1.04
1.09
1.05
1.09
1.11
1.05
1.07
1.05
0.96
0.9
0.9
0.97
0.99
0.99
1.06
1.1
1.08
1.14
1.13
1.1
1.07
1.08
1.03
0.95
0.98
1.04
1.01
1.01
0.97
0.95
0.9
0.95
1.01
1.05
1.12
1.16
1.1
1.09
1.1
1.06
0.98
0.95
0.93
0.97
0.98
1.02
1.06
1.08
1.01
1.01
1.02
1.01
0.95
0.95
0.93
0.59
0.29
0.79
0.72
0.68
0.67
0.69
0.73
0.73
0.66
0.29
0.39
1.43
0.65
0.66
0.65
0.62
0.63
0.63
0.62
0.63
0.63
0.62
0.64
0.64
0.67
0.7
0.71
0.71
0.75
0.79
0.81
0.78
0.8
0.89
0.97
0.95
1
1.04
1.01
0.99
1.02
1.02
0.97
0.97
1.04
1.06
1.01
1.01
0.99
1
0.96
0.98
0.89
0.82
0.81
0.86
0.95
0.97
1.02
1.04
1.05
1.02
1.07
1.08
1.06
1.04
1.07
1.11
1.06
0.98
0.93
0.95
1.02
1.02
1.05
1.12
1.13
1.05
1.04
1.03
0.98
0.97
0.98
0.95
0.91
0.96
1.04
1.01
0.95
0.99
1.05
1.1
1.06
1
1
0.99
0.96
0.98
1.02
1.03
1
0.99
0.98
0.93
0.93
0.98
1.04
1.04
1.08
1.03
1
1.03
1.06
1.06
1.02
1.04
1.09
1.06
1.05
1.04
1.01
0.95
0.94
0.94
0.94
1.03
1.11
1.1
1.11
1.12
1.09
1.03
1
0.98
0.94
0.93
0.99
1.01
1.01
0.95
0.94
0.96
0.96
0.93
0.96
1
0.97
1.01
1.04
0.99
0.95
0.97
0.99
0.95
0.94
0.96
0.95
0.9
0.86
0.88
0.9
0.94
0.96
0.96
0.95
0.98
1.06
1.11
1.08
1.08
1.09
1.03
1.05
1.02
0.98
0.92
0.91
0.92
0.92
0.95
1.03
1.06
1.08
1.05
1.09
1.03
0.98
0.96
0.93
0.89
0.84
0.84
0.83
0.84
0.92
1
0.91
0.99
0.92
0.86
0.88
0.94
0.93
0.96
0.98
0.99
0.94
0.98
1
0.98
1
1.06
1.1
1.05
0.97
0.92
0.88
0.91
0.95
1
1.01
1.02
0.93
0.89
0.87
0.82
0.81
0.86
0.95
0.95
0.99
1.04
1.08
1.04
1.09
1.1
1.09
1.03
1.05
1.03
0.97
0.91
0.95
0.99
0.99
1.05
1.13
1.1
1.06
1.01
0.99
0.97
0.99
1.04
1.01
0.95
0.97
1.02
1.05
1.04
1.05
1.09
0.99
0.94
0.91
0.93
0.92
1.01
1.04
1.02
1
1.02
1
1
1.05
0.99
0.95
0.95
0.97
0.96
0.99
1
1
1.02
1.04
0.99
1.01
1.01
0.97
0.95
0.95
0.99
1.01
0.98
0.96
0.93
0.89
0.86
0.89
0.98
1
1
1.1
1.15
1.14
1.15
1.08
1.01
1
0.94
0.89
0.88
0.93
0.99
0.99
1.02
1.04
1.02
0.99
1
0.98
0.93
0.92
0.95
1
0.96
0.92
0.98
1.08
1.14
1.12
1.17
1.17
1.02
0.97
0.94
0.91
0.89
0.94
1.03
1.1
1.06
1.06
1.05
0.97
0.95
0.95
0.96
0.92
0.9
0.92
0.92
0.95
0.96
0.95
0.91
0.9
0.89
0.89
0.9
1.03
1.09
1.1
1.08
1.08
1.06
1
1.01
1.02
1.05
0.97
0.99
1.03
1.04
0.98
1
1.01
0.95
0.94
0.98
1.02
1
0.93
0.91
0.95
0.95
0.94
1
1.08
1.07
1.14
1.12
1.06
1.01
1
1
0.94
0.94
0.96
0.99
0.98
0.93
0.96
0.98
0.99
0.95
0.96
0.98
0.95
0.96
0.99
0.98
0.94
0.95
0.98
0.98
0.96
0.98
1
0.97
0.92
0.93
0.95
0.93
0.9
0.92
0.9
0.93
0.87
0.85
0.88
0.93
0.99
1.15
1.23
1.16
1.12
1.13
1.11
1
0.97
0.97
1
0.97
0.98
0.98
0.99
0.95
0.94
0.96
0.9
0.9
0.9
0.89
0.9
0.96
1.02
1.07
1.02
1.02
1.02
0.96
0.9
0.92
0.96
0.97
0.99
1.05
1.12
1.1
1.02
1.02
1.01
0.98
0.93
0.95
0.98
0.95
0.95
1
1
0.96
0.93
0.93
0.97
0.95
0.91
0.91
0.92
0.9
0.92
0.92
0.96
0.99
1.11
1.17
1.08
1.02
1.02
1
0.96
0.96
0.99
1.03
0.97
0.99
1
1
0.94
0.93
0.96
0.97
0.96
0.98
1.03
1.02
1.01
1.01
1.01
0.98
0.91
0.93
0.97
0.97
0.96
0.98
1.01
0.97
0.97
1.01
1.02
0.94
0.93
0.95
0.96
0.92
0.94
0.93
0.94
0.9
0.88
0.88
0.88
0.88
0.88
0.96
1.03
1.01
1.04
0.97
0.91
0.88
0.83
0.84
0.92
0.96
1.05
1.12
1.15
1.09
1.02
1.04
1.02
0.99
0.95
0.95
0.99
1.05
1.02
1.01
0.97
0.97
0.98
1
1.06
1.08
1.03
1.06
1.08
1.04
0.99
0.98
1
1.01
0.97
0.94
0.94
0.92
0.9
0.98
1.11
1.13
1.06
1.04
1.08
1.05
1
1.04
0.99
0.91
0.87
0.87
0.89
0.9
0.89
0.93
0.94
0.9
0.92
1.01
1.08
1.03
1.09
1.12
1.09
1.04
1.01
1
0.96
0.98
1
1
0.98
0.94
0.99
0.95
0.91
0.88
0.94
1.02
1.05
1.06
1.07
1.08
1.05
1.03
1
1
0.95
0.95
0.95
0.94
0.96
1.01
1.03
0.98
0.98
1.01
0.98
0.93
0.94
0.93
0.91
0.87
0.85
0.87
0.91
1.03
1.16
1.16
1.07
1.12
1.12
1.05
0.99
0.97
0.95
0.95
0.98
1.05
1.05
1
1.04
1.04
1.03
1.04
1.02
0.99
0.94
0.95
0.96
0.95
0.99
1.03
1
0.98
1
1.01
0.99
0.96
0.95
0.94
0.95
0.99
0.98
1.01
1.07
1.03
0.98
0.96
0.98
0.94
0.95
0.95
0.92
0.94
0.96
0.99
0.96
0.99
1.01
0.96
0.9
0.85
0.83
0.82
0.83
0.85
0.98
1.21
1.21
1.28
1.21
1.13
1.09
1.08
1.02
0.99
0.94
0.92
0.9
0.96
1.03
1.07
1.01
0.98
0.96
0.95
0.97
1.03
1.05
0.99
1.01
1.02
1.01
0.95
0.96
0.96
0.93
0.99
1.05
1.01
0.97
0.97
0.99
0.98
0.97
0.91
0.89
0.85
0.89
1
1.11
1.12
1.19
1.15
1.05
1.06
1
0.93
0.94
0.93
0.92
0.91
0.9
0.94
0.92
0.96
1.09
1.13
1.06
1.09
1.07
1
0.95
0.93
0.95
0.93
0.93
0.99
1.03
0.99
0.98
0.98
0.98
0.94
0.91
0.91
0.89
0.92
0.94
1.02
1.03
1.09
1.09
1.04
1.01
1.01
0.96
0.94
0.91
0.89
0.86
0.88
0.98
1.08
1.05
1.12
1.13
1.06
1
0.98
0.94
0.9
0.95
1
1
0.97
1.01
1.02
0.98
0.99
1.01
1.03
0.97
0.98
1.01
1
0.97
0.99
1
0.95
0.95
0.98
1.02
1
1.01
1.04
1
0.96
0.97
0.98
0.99
0.95
0.98
1.01
1.01
0.98
0.99
0.99
0.95
0.98
1
0.99
0.99
0.99
1
0.98
0.94
0.98
1
0.99
0.96
0.99
1.02
1.03
0.97
1
1.02
1
0.96
0.99
1
0.96
0.99
1.01
0.96
0.95
0.99
1
1
0.98
1.01
1.02
0.96
0.92
0.91
0.9
0.88
0.9
0.91
0.89
0.92
0.95
1.02
0.99
1.01
1.04
1.02
0.98
0.97
0.98
0.98
0.96
0.96
0.99
1.02
0.99
0.99
1.01
1.02
0.97
1.01
1.04
1.04
0.99
1.01
1.03
1.03
1.02
1.02
1.02
1
0.93
0.96
0.98
0.98
0.95
0.97
1.01
1.03
0.96
0.99
0.99
1
0.92
0.96
1
0.99
0.94
0.93
0.94
0.97
0.94
0.91
0.92
0.95
0.95
0.91
0.9
0.91
0.9
0.88
0.92
0.95
0.95
0.94
0.97
1
0.95
0.96
0.97
0.97
0.94
0.94
0.94
0.91
0.94
0.95
0.97
0.94
0.96
0.99
1
0.97
0.97
0.96
0.97
0.92
0.94
0.96
1
0.96
0.95
0.96
0.94
0.89
0.89
0.91
0.93
0.93
0.97
1.02
1.02
0.96
0.95
0.97
0.96
0.9
0.92
0.93
0.93
0.89
0.91
0.95
0.96
0.93
0.91
0.87
0.81
0.8
0.78
0.76
0.76
0.75
0.78
0.78
0.79
0.83
0.87
0.86
0.91
0.93
0.93
0.85
0.82
0.79
0.77
0.75
0.74
0.75
4.57
0.77
0.73
0.72
0.7
0.7
0.69
0.68
0.67
0.67
0.66
0.67
0.67
0.69
0.71
0.75
0.76
0.79
0.81
0.29
1.37
0.83
0.87
0.89
0.95
1.03
1.09
1.08
1.16
1.18
1.11
1.04
1.01
1
1.02
1.12
1.07
1.02
1
1
1.03
1.06
1.12
1.15
1.1
1.1
1.09
1.07
1.08
1.03
1.02
1.04
1.04
1.02
1
1.04
1.02
1.02
0.98
0.97
0.95
0.98
1.07
1.12
1.11
1.11
1.16
1.12
1.09
1.09
1.06
1
1.02
1.07
1.06
1.01
1.01
1.03
1.04
1.04
1.09
1.08
1.07
1.01
1.01
0.94
0.89
0.91
0.95
0.94
1.03
1.08
1
0.97
1
1.1
1.11
1.13
1.12
1
0.96
0.89
0.92
0.93
0.97
1.07
1.15
1.06
0.98
0.97
0.98
0.96
0.88
0.88
0.89
0.84
0.81
0.83
0.86
0.91
1
1.14
1.08
1.02
0.97
0.95
0.97
0.97
0.97
1.06
1.16
1.19
1.13
1.15
1.14
1.09
1.07
1.08
1.11
1.08
1.09
1.1
1.05
1.06
1.08
1.09
1.03
1.02
1.03
0.99
0.99
1.01
0.95
0.91
0.84
0.82
0.82
0.79
0.8
0.91
1.05
1.13
1.17
1.13
1.2
1.13
1.06
1
1
1
0.98
0.98
0.97
0.97
0.95
1
1.07
1.12
1.07
1.06
1.05
1.02
1.06
1.03
1.03
1.07
1.04
1.05
1.09
1.01
0.98
1.02
1.07
1.05
0.99
1.04
1.05
1.05
1.01
0.99
1.03
1.04
1.01
0.98
0.96
0.92
0.88
0.93
0.99
1.06
1.19
1.28
1.21
1.17
1.17
1.1
1
0.96
0.96
0.94
0.95
1
1.1
1.09
1.13
1.11
1.05
1.07
1.06
1.02
0.98
1
1.01
0.99
1.02
1.03
1.03
0.99
1.03
1.04
1.04
0.97
0.93
0.98
1.02
1.04
1.02
1.08
1.13
1.11
1.08
1.03
0.96
0.89
0.87
0.9
0.98
1.08
1.23
1.13
1.05
1.04
1.09
1.1
1.07
1.08
1.06
1.07
1.09
1.05
1.05
1.03
1.04
1.02
0.99
1.02
1.03
0.99
1
1.04
1.04
0.98
0.95
0.98
1.03
1.04
1.12
1.18
1.17
1.1
1.11
1.13
1.08
1.05
0.89
1.1
0.92
0.9
0.92
0.92
0.92
0.94
1.03
1.1
1.11
1.18
1.13
1.04
0.98
0.97
0.98
0.95
0.95
0.99
1.04
1
0.99
1.05
1.08
1.12
1.17
1.13
1.1
1.08
1.06
1.05
1.04
1.03
1.03
1.06
1.06
1.04
1.08
1.09
1.07
1.04
1.03
1.01
0.95
0.93
0.94
0.98
1.04
1.11
1.09
1.06
1.11
1.09
1.05
0.99
1.02
1.04
0.99
0.97
0.96
0.97
0.96
0.93
0.95
0.95
0.88
0.87
0.86
0.82
0.81
0.86
0.97
1
1.06
1.09
1.06
1.07
1.11
1.11
1.1
1.13
1.11
1.07
1.09
1.08
1.06
1
0.97
1.02
1.05
1.16
1.18
1.17
1.14
1.17
1.15
1.08
1.06
1.08
1.1
1.12
1.03
1.03
1.05
1.08
1.1
1.08
1.02
1.02
1
0.97
0.92
0.91
0.98
1
0.99
1.05
1.2
1.07
1.04
1.07
1.14
1.12
1.07
1.09
1.1
1.02
0.94
0.94
0.99
1.07
1.2
1.28
1.19
1.18
1.17
1.11
1.08
1.07
1.07
1.02
1
1.01
0.96
0.95
0.98
1.03
1.07
1.14
1.22
1.18
1.09
1.11
1.15
1.09
1.04
1.05
1.05
1.01
0.98
1.03
1.06
1.07
1.01
1.09
1.08
1.06
1.1
1.11
1.01
1
0.99
0.99
0.97
0.94
0.94
0.91
0.96
0.95
0.92
0.93
1
0.95
0.9
0.88
0.84
0.87
0.93
0.98
1.12
1.18
1.08
1.03
1.02
1.02
0.95
0.97
0.98
0.97
1.02
1.05
1.05
1.01
1
1.06
1.08
1.08
1.03
1.05
1.04
1.04
1.09
1.12
1.08
1.06
1.11
1.14
1.09
1.06
1.05
1.04
0.99
0.99
0.97
0.95
0.89
0.9
0.96
0.98
1.05
1.25
1.24
1.17
1.08
1.05
0.98
0.91
0.96
1.08
1.05
0.99
0.99
1.08
1.17
1.11
1.17
1.18
1.11
1.09
1.11
1.03
1.03
1.03
0.97
0.99
1
1.08
1.1
1.05
1.09
1.11
1.07
1.02
1.03
1.07
1.02
1
0.98
1.04
1.04
1.03
1.09
1.06
1.05
1.07
1.04
1
1.05
1.07
1.02
1.06
1.09
1.07
1.02
1.01
1
1
1.03
0.98
0.96
0.91
0.92
0.9
0.87
0.85
0.9
0.99
0.96
0.9
0.92
0.88
0.86
0.86
0.85
0.85
0.91
0.98
1.07
1.06
1.14
1.17
1.14
1.11
1.18
1.15
1.1
1.05
1.06
1.02
1.01
1.05
1.08
1.06
1.08
1.12
1.07
1.04
1.06
1.04
1.03
1.06
1.05
1.02
1.08
1.08
1.04
0.98
1.01
1.07
1.1
1.03
1.06
1.09
1.11
1.09
1.12
1.09
1.03
1.01
1.04
1
1.01
1.01
0.96
1.03
1.08
1.02
1.01
1.04
1.02
1
1.01
1.04
1.03
0.98
0.97
1
0.95
0.99
0.97
0.92
0.89
0.88
2.55
0.85
0.82
0.85
0.96
1.05
1.25
1.28
1.17
1.22
1.18
1.12
1.07
1.12
1.13
1.11
1.05
1.09
1.14
1.1
1.09
1.14
1.14
1.17
1.12
1.07
1.1
1.15
1.1
1.03
1.01
1.02
1.03
1.13
1.21
1.17
1.11
1.15
1.13
1.07
1.11
1.12
1.05
1.05
1.04
1.05
1
0.99
1.01
1
1.02
1.07
1.11
1.08
1.07
1.11
1.07
1.06
1.08
1.05
1
1.03
1.06
1.03
1.08
1.09
1.07
1.08
1.1
1.06
1.05
1.05
1.04
1.01
1.03
1.05
1.03
1.02
1.02
0.97
0.92
0.94
1.06
1.12
1.11
1.11
1.08
1.18
1.21
1.18
1.19
1.16
1.08
1.06
1.05
1.04
1.02
1.05
1.08
1.06
1.08
1.09
1.05
0.99
1.01
1.02
0.99
0.98
1.06
1.08
1.04
1.07
1.1
1.04
1.04
1.09
1.13
1.09
1.07
1.05
1.04
1.02
1.06
1.08
1.06
1.07
1.09
1.05
1.08
1.07
1.06
1.04
1.06
1.08
1.04
1.05
1.04
1.02
0.99
0.99
0.99
1
0.97
0.97
1
1.02
1.03
1.07
1.11
1.07
1
1.03
0.99
0.95
0.95
1.01
1.06
1.03
1.09
1.12
1.06
1.02
1.05
1.06
1.01
1.02
1.02
1.01
0.97
0.98
1
0.99
0.98
0.99
0.99
0.94
0.96
1
1.05
1.04
1.11
1.11
1.08
1.04
1.08
1.05
1.05
1.04
1.07
1.08
1.05
1.06
1.1
1.06
1
1.04
1.02
0.98
1.01
1.07
1.07
1.04
1.11
1.07
1.02
1.01
1.01
0.97
0.99
1.04
1
0.98
1.02
1.01
0.98
0.99
0.99
0.98
1.04
1.09
1.09
1.04
1.06
1.07
1.02
1.02
1.06
1.02
0.98
1.02
1.02
0.99
0.99
1.03
1.03
1.02
1.07
1.08
1.02
1
1.02
1.03
0.99
1.02
1.07
1.08
1.04
1.05
1.07
1.05
1.02
1.03
1.03
1
1
1.01
1.02
0.98
1.01
1.04
1.01
1.02
1.04
1.01
0.97
0.98
0.99
0.96
0.96
1.02
1.07
1.03
1.05
1.04
1.02
0.98
1
1.03
1
0.95
0.97
0.99
1.03
1.03
1.01
1.04
1.01
1.01
1.03
1.03
1
1.04
1.05
1.02
1.02
1.06
1.08
1.04
1.05
1.04
0.99
0.95
0.94
0.97
0.95
0.96
1.01
1.04
1
1.03
1.05
1.07
1.01
1
1
1
0.96
0.99
1.01
0.98
0.95
0.97
1.02
0.96
0.98
1
1.03
1.01
1.07
1.09
1.07
1.08
1.13
1.08
1.02
1.03
1.03
1
1.01
1.04
1
1.01
1.03
1.04
1
0.99
1.02
1.03
0.97
0.97
1
0.97
0.97
1
1.01
0.98
0.99
1.02
1
0.92
0.93
0.94
0.94
0.93
0.98
1.01
1
1.02
1.07
1.05
1.01
0.99
1
1.01
0.99
0.99
1.04
1.03
1
1.04
1.07
1.01
1.01
1.02
1.03
1.01
1.04
1.04
1.04
0.98
1
1.03
1.01
1
1.02
1.05
0.99
0.97
0.99
1
0.98
1
1.04
1.05
0.99
1.02
0.99
0.99
0.94
0.96
0.96
0.98
0.99
1.07
1.07
1.02
1.04
1.05
1.03
0.99
0.99
1.01
1
0.97
1.02
1.04
1.01
1.02
0.99
1.01
1.01
1.03
1.06
1.04
1.01
1.03
1.05
1.02
1.05
1.05
0.97
0.99
1.02
1.03
1
1.03
1.06
1.03
1.04
1.04
1.04
1
1.01
1.02
0.97
0.97
0.99
1.01
0.96
0.99
1.01
0.99
1.05
1.03
1
0.97
1
1.04
0.99
0.98
1.01
1.05
1.02
1.03
1.06
1.05
1.02
1.02
1
0.97
0.97
0.98
0.96
0.99
1.04
1.02
1
1.02
1.04
0.99
1
1
0.96
0.96
0.99
1.01
1
0.97
1.04
1.1
1.03
1.03
1.07
1.01
1.04
1.06
1.07
1.01
1.03
1.03
1
0.96
0.98
0.97
0.93
0.94
0.96
0.96
0.96
0.98
1.03
1
1.02
1.03
1.01
0.96
0.96
0.98
0.98
0.99
1.07
1.09
1.06
1.05
1.04
1.05
1.02
0.95
0.94
0.97
1.02
0.98
1.01
1.05
1.04
0.99
1.01
1.02
1
0.99
1.03
1.07
1.01
1.03
1.05
1.03
0.99
0.99
1.01
0.95
0.97
0.97
0.98
0.94
0.95
1
1.03
1.01
0.99
1.03
1.03
1
0.99
1
1
0.99
0.99
1
1.01
0.97
0.98
1.03
1
1.03
1.06
1.07
1.03
1.06
1.07
1.05
1.01
1.04
1.06
1.03
0.98
0.99
1.03
1.04
0.99
1.01
1.04
1.03
1.04
1.08
1.05
1.02
1.04
1.06
1.04
1
1.01
1.02
1
0.98
1.02
1.06
1.01
1.02
1.04
1.01
1
1.06
1.08
1.04
1.03
1.02
0.99
0.97
0.99
0.99
0.98
1.02
1.04
1
1.02
1.03
1
0.98
0.99
1.01
0.98
0.98
1.02
1.02
1
1.03
1.02
0.98
0.99
1
0.99
1
1.04
1
1
1
0.95
0.94
0.97
0.98
0.93
0.95
0.99
1.02
1
1.03
1.05
1.01
0.95
0.97
0.99
0.98
0.98
1.08
1.07
1.01
1.01
1.03
1.02
0.96
0.93
0.95
0.99
0.98
1.03
1.06
1.03
1.02
1.03
0.98
1.01
1.01
1.02
0.97
1
1.05
1.04
1.06
1.08
1.05
1.01
1.01
0.98
0.92
0.91
0.92
0.92
0.9
0.97
1.03
1.03
1.01
1.04
1.06
1
1
1.01
1
0.96
1
1.04
1.01
1
1.03
1.05
1
1.04
1.05
1.04
1.02
1.08
1.06
1
1.02
1.04
1.06
1.02
1.04
1.05
1.05
0.98
1
1
0.98
1.02
1.04
1.04
1.01
1.04
1
0.98
0.99
1.01
0.97
1.01
1.02
0.99
1.03
1.03
0.99
0.99
1.03
1.01
0.97
0.95
0.98
0.97
0.97
1.01
1.01
0.98
0.98
0.99
0.99
0.96
0.98
1.01
1.04
0.98
0.97
1.01
1.01
0.98
1.03
1.02
0.99
0.98
1.03
1.01
1.02
1.03
0.99
1.02
1.04
0.98
0.96
1.01
1.03
0.97
0.96
1
1
0.97
0.97
1.01
1.03
1
1.02
1.05
1
1.02
1.02
1
0.96
0.97
0.98
1.02
0.97
1.01
1.03
1
1
1.02
1.02
0.99
0.96
0.97
1
0.96
1
1.02
1
1.03
1.06
1.03
1.03
1.06
1.02
1
1
1.03
1.03
0.99
1.01
0.99
0.97
0.98
1.02
1.06
1.02
1.03
1.05
1.01
0.98
1
1.01
1
1.03
1.06
1.03
0.99
1.03
1.04
0.95
0.95
0.97
0.96
0.95
1.01
1.02
1.05
1.05
1.07
1.03
1.01
1.05
1.06
1
0.99
1
1.02
0.95
0.97
0.96
1
0.97
1
1.02
1.05
1.01
1.06
1.07
1.03
1
1
0.96
0.95
0.97
1.01
0.98
1
1.04
1.01
0.99
1.01
1.02
1.01
0.98
1
1.03
0.99
0.97
0.99
0.98
0.98
1.06
1.1
1.02
1
1.02
1
0.95
0.96
0.99
0.97
0.95
1.01
1.02
0.99
1
1.03
1.07
0.97
1.01
1.06
1.03
1.04
1.13
1.16
1.09
1.1
1.11
1.08
1.07
1.08
1.06
1.01
1.02
1.03
0.98
0.95
0.97
0.98
0.96
1.01
1.05
1.01
0.97
0.99
0.98
0.96
0.96
1.03
1.04
1.04
1.13
1.13
1.05
1.04
1.04
1.06
0.99
1.02
1.01
0.98
0.99
0.98
0.98
0.97
0.98
1.01
1
0.98
1.03
1.05
1
1.03
1.06
1.04
1.05
1.05
0.99
1.01
1.03
0.98
0.99
1.06
1.06
1.01
1.01
1.03
1.01
0.95
0.97
0.99
0.98
0.99
1.07
1.08
1.02
1.03
1.03
1.01
0.98
1.01
1
1.02
1.03
0.98
0.99
1.03
0.99
1
1
1.01
0.96
0.97
1
0.99
0.94
0.96
0.99
1
0.98
0.96
1
1.01
0.99
0.99
1.02
1
0.99
1.03
1.06
1.04
1.01
1.01
1.04
1.01
0.99
1.04
1.01
0.98
1.03
0.99
0.98
0.96
0.98
1.02
0.99
1
0.99
1.01
0.98
1
1.01
0.99
0.96
0.98
1
0.98
1
1.04
1.01
0.96
1
1.02
0.97
0.98
1
1.01
0.96
0.96
1
1.02
0.98
0.98
1
0.99
0.97
1.01
1.03
1
1
1
1.05
0.97
0.95
0.96
1
0.96
0.97
1.01
1.03
1.02
1.07
1.14
1.06
1.01
1.01
1.02
1
0.97
0.99
1
0.97
1.03
1.06
1.01
0.96
0.99
0.99
0.96
0.96
1.02
0.97
0.98
0.98
0.98
0.96
0.98
1.04
0.99
0.98
1.06
1.1
1.02
1
1.02
1.01
0.98
0.99
0.99
0.96
0.95
0.99
1.01
0.98
1.01
1.04
1.01
0.97
0.97
0.97
0.97
0.94
0.95
0.98
0.99
0.96
0.99
1.01
0.98
0.99
1.02
1.04
0.96
0.97
0.99
1.01
0.96
1.02
1.04
1.02
1.02
1.08
1.1
1.01
0.99
1.02
1.05
1.02
1.05
1.12
1.1
1.09
1.11
1.1
1.02
1.01
1.02
1.02
0.97
1.01
1.03
1.03
0.99
0.98
1
1
0.99
1.04
1.09
1.07
1.02
1.06
1.05
1
0.98
0.98
0.96
0.95
1.01
1.03
1.01
1.02
1.04
1.03
1
0.99
1.01
0.99
0.98
0.94
0.98
1
0.97
1.03
1.07
1.03
1
1.02
1.02
0.97
0.98
1.01
0.95
0.99
1.05
1.06
1.03
1.02
1.06
1.05
1
1.01
1.01
0.97
0.99
1.02
1.04
0.97
1.01
1.04
1.01
1.02
1.06
1.04
1.03
1.06
1.04
1.01
1.05
1.06
1.03
0.99
1
1.02
1.04
0.99
0.99
1.03
1.06
1.02
1.04
1.07
1.07
0.98
0.99
1.02
1.02
1.04
1.13
1.15
1.12
1.15
1.16
1.08
1
1.01
0.98
0.96
0.98
1.02
0.97
0.99
1.02
1.04
1.01
1.03
1.05
1.03
0.97
1
0.99
0.98
0.99
1.02
1.08
1.03
1.04
1.06
1.05
1.01
1.04
1.05
1.03
1
1.04
1.09
1.02
1.05
1.07
1.04
0.97
0.98
1.02
1.01
0.97
0.96
1
1.04
0.99
1
1.03
1.02
0.98
1
1.01
0.95
0.95
1.01
1.07
1
1
1.04
1.04
1.02
1.04
1.08
1.04
0.99
0.98
0.98
0.97
0.94
0.98
1.01
0.96
0.97
0.98
1
0.97
0.98
1.01
1
1
1.02
0.99
0.96
0.99
0.98
0.96
0.93
0.99
1.04
0.99
0.98
1.02
1.05
1.01
1.03
1.06
1.06
1.06
1.04
1.03
0.99
1.01
1.06
1.06
1
1.06
1.08
1.04
1
1.01
1.03
0.99
0.99
1
1
0.96
1
1.01
0.99
0.97
0.99
1.03
1.02
1
1.04
1.07
0.99
0.97
0.97
1
0.98
1.03
1.08
1.05
1.02
1.08
1.01
0.98
1.01
1.06
1.08
1
1.03
1.07
1.05
1.05
1.06
1.05
0.99
1.01
1.01
1.01
0.95
0.95
0.97
0.99
0.94
0.94
0.98
1.01
1.01
0.96
0.99
1.01
0.98
1.01
1.04
1.06
1.01
1.05
1.06
1.01
0.99
1.03
1.06
1.02
1.03
1.07
1.05
0.97
0.98
1.03
1.03
0.99
1.01
1.05
1.03
1.02
1.05
1.01
0.98
1
1.01
0.98
0.96
1
1
1
0.96
0.98
1.02
0.98
0.98
1.02
1.07
1.02
1.03
1.09
1.12
1.04
0.98
0.99
0.98
0.98
1.04
1.06
1.01
1.01
1.02
1.01
0.99
1.03
1.03
1.01
1
1.08
1.08
0.98
1
0.98
0.95
0.9
0.88
0.85
0.88
0.97
1.02
0.91
0.95
1.05
1.02
0.96
0.87
0.85
0.74
0.91
0.8
0.8
0.79
0.77
0.76
0.75
3.71
0.72
0.7
0.7
0.69
0.69
0.7
0.69
0.68
0.69
0.7
0.71
0.72
0.73
0.76
0.77
0.84
0.89
0.87
0.84
0.85
0.89
0.95
0.97
0.98
1.04
1.04
1.07
1.12
1.1
1.08
1.08
1.1
1.08
0.98
0.98
1.03
1.12
1.08
1.09
1.09
1.09
1.07
1.13
1.13
1.1
1.08
1.13
1.12
1.12
1.1
1.08
1.07
1.09
1.04
1.03
1.03
1.08
1.06
1.07
1.04
0.98
0.91
0.89
0.84
0.82
0.89
1.16
1.24
1.3
1.17
1.12
1.04
1
0.95
0.92
0.94
0.99
1.03
1.19
1.18
1.14
1.14
1.08
1.09
1.05
1.14
1.17
1.2
1.15
1.19
1.19
1.12
1.12
1.13
1.04
1.05
1.1
1.12
1.1
1.13
1.09
1.04
1.07
1.11
1.05
1.05
1.1
1.11
1.06
1.11
1.08
1.04
1
1.04
1.07
0.99
0.93
0.91
0.91
0.93
0.93
0.96
1.04
1.09
1.18
1.21
1.17
1.17
1.12
1.08
1.07
1.04
1.03
1
1.05
1.09
1.06
1.08
1.11
1.1
1.07
1.11
1.13
1.03
0.95
0.93
0.88
0.9
0.98
1.01
1.06
1.23
1.23
1.17
1.16
1.12
1.05
1.02
1.05
1.09
1.05
1.06
1.05
1
1
1.01
0.99
1.03
1.11
1.1
1
0.94
0.94
0.96
0.98
0.99
0.98
1
1.15
1.22
1.2
1.17
1.18
1.11
1.09
1.11
1.09
1.12
1.19
1.11
1.07
1.08
1.08
1.06
1.04
1.09
1.08
1.05
1.1
1.13
1.08
1.09
1.1
1.11
1.03
1.11
1.12
1.09
1.13
1.14
1
0.92
0.92
0.97
1.01
1.21
1.32
1.25
1.19
1.2
1.16
1.1
1.09
1.08
1.03
1.02
1.05
1.03
1.01
1.04
1.07
1.08
1.06
1.08
1.09
1.07
1.07
1.05
0.98
0.93
0.94
0.98
0.93
0.93
0.94
1.01
1.02
1.08
1.15
1.13
1.19
1.18
1.12
1.12
1.08
1.04
1.04
1.02
1.01
1.04
1.07
1.06
1.1
1.14
1.09
1.05
1.08
1.13
1.11
1.09
1.13
1.16
1.07
1.04
1.04
1.04
1.01
1.04
1.03
0.99
0.96
0.97
1.03
1.06
1.22
1.23
1.22
1.28
1.2
1.08
1.08
1.06
1.02
1.03
1.05
1.01
1.07
1.1
1.06
1.08
1.08
1.04
1.04
1.02
1.01
0.98
0.92
0.93
0.92
0.94
1.06
1.23
1.23
1.24
1.2
1.16
1.16
1.11
1.08
1.11
1.06
1.1
1.1
1.07
0.98
0.98
0.96
0.98
1.12
1.26
1.2
1.2
1.26
1.23
1.15
1.13
1.12
1.06
1.06
1.09
1.03
1.01
0.94
0.94
0.91
0.89
0.93
1.03
1.1
1.29
1.28
1.19
1.18
1.16
1.09
1.05
1.04
1.04
1.01
1
1.04
1.06
1.06
1.05
1.12
1.02
0.97
0.95
1.02
1.08
1.1
1.16
1.21
1.13
1.11
1.07
1
0.93
0.91
0.87
0.9
1.04
1.22
1.27
1.18
1.21
1.21
1.15
1.1
1.13
1.15
1.12
1.06
1.09
1.03
0.95
0.89
0.88
0.91
1.04
1.12
1.3
1.37
1.25
1.23
1.23
1.11
1.09
1.08
1.04
1.05
1.06
1.02
0.95
0.96
1.01
1.1
1.12
1.2
1.2
1.13
1.14
1.14
1.09
1.08
1.1
1.01
0.98
1
1.01
0.99
1
1.09
1.15
1.11
1.15
1.12
1.08
1.08
1.11
1.09
1.04
1.05
1.07
1.01
0.96
0.96
1.01
1.06
1.05
1.14
1.11
1.08
1.03
1.08
1.08
1.07
1.06
1.07
1.08
1.07
1.06
1.09
1.03
1
1.01
1.06
1.11
1.09
1.14
1.13
1.11
1.05
1.07
1.04
1.01
1.01
1.05
1.04
1.01
1.01
1.04
0.97
0.94
0.91
0.94
1.03
1.09
1.21
1.23
1.17
1.19
1.13
1.06
1
1.01
1
0.99
1
1.02
0.97
0.96
0.95
1.04
1.11
1.12
1.15
1.14
1.07
1.02
0.98
1.02
1.02
1.06
1.15
1.18
1.1
1.14
1.14
1.13
1.05
1.02
1.07
1.09
1.07
1.11
1.11
1.04
1.03
1.05
1.07
1.03
1.07
1.09
1.07
1.01
1.05
1.06
1.03
1.03
1.04
1.02
0.98
0.99
1.01
1.02
1.03
1.08
1.07
1.06
1.01
1.04
1.05
1.03
1.02
1.06
1.06
1.07
1.09
1.1
1.07
1.02
1.05
1.05
1.05
1.01
1.06
1.1
1.07
1.09
1.09
1.07
1.06
1.11
1.14
1.07
1.08
1.09
1.07
1.04
1.06
1.05
1.04
1.01
1.05
1.07
1.03
1.03
1.07
1.05
1.03
1.06
1.07
1.04
0.99
1.02
1.04
1.01
1.06
1.19
1.1
1.1
1.12
1.09
1.05
1.01
1.01
0.97
0.99
0.97
0.99
1
0.99
1
0.98
0.95
0.94
1
1.08
1.12
1.13
1.2
1.18
1.12
1.14
1.23
1.35
1.26
1.15
1.03
0.99
0.95
0.99
1.03
0.97
1.33
1.33
1.34
1.28
1.18
1.21
1.18
1.11
1.08
1.04
1
0.95
0.98
1.01
1.04
1.04
1.11
1.13
1.08
1.05
1.07
1.12
1.22
0.89
0.24
0.92
0.82
0.74
0.7
0.68
0.7
0.61
0.79
0.76
0.23
0.61
0.76
0.8
0.88
0.91
0.9
0.89
0.86
0.88
0.9
0.94
0.99
1.02
1.07
1.12
1.13
1.13
1.18
1.15
1.11
1.11
1.1
1.05
1.03
1.04
1.07
1.03
1.05
1.09
1.18
1.16
1.09
1.13
1.14
1.06
1.06
1.07
1.08
1.04
1.02
1.04
1.04
1.03
1.05
1.1
1.09
1.1
1.14
1.12
1.08
1.09
1.09
1.06
1.04
1.08
1.06
1.05
1.07
1.05
1.03
1.02
1.01
0.98
0.97
1.02
1.03
0.98
0.94
0.94
0.95
0.97
1.01
1.02
1.05
1.04
1.01
0.98
0.99
0.94
0.89
0.87
0.82
1.64
0.79
0.77
0.64
1.56
0.85
0.34
0.36
0.78
0.72
1.44
0.57
0.38
0.45
0.69
0.68
0.68
1.19
1.5
0.68
0.68
0.69
0.73
0.74
0.75
0.77
0.78
0.79
0.78
0.77
0.78
0.77
0.81
0.81
0.85
0.84
0.82
0.83
0.82
0.86
0.87
0.92
0.88
0.86
0.88
0.9
0.93
0.89
0.97
1.02
1.02
1
1.06
1.08
1.01
0.92
0.94
0.97
1.01
1
1.08
1.08
1.01
0.97
0.99
1
0.98
0.93
0.95
0.95
0.98
0.96
0.97
0.99
0.99
0.96
0.97
0.95
0.91
0.91
0.92
0.92
0.95
1.01
1.02
0.97
0.91
0.9
0.89
0.88
0.89
0.86
0.85
0.84
0.84
0.81
0.82
0.82
0.8
0.81
0.82
0.82
0.81
0.85
0.89
0.96
1
0.97
1.04
1.05
1.05
1.03
1.07
1.08
1.03
1.08
1.09
1.1
1.04
1.09
1.09
1.06
1.03
1.1
1.1
1.04
0.97
0.95
0.96
1.04
1.01
1.1
1.12
1.08
1.01
1.05
1.05
1.06
0.99
0.96
0.97
0.99
0.97
1
1.02
1.06
0.99
0.93
0.93
0.92
0.9
0.93
0.99
1.01
0.98
1.02
1.08
1.02
1
1.03
1.03
0.99
0.97
0.99
1.04
1
0.98
0.97
1.01
1.04
1
1.04
1.08
1.03
1.05
1.03
0.99
0.95
0.95
0.96
0.98
0.94
0.95
0.98
0.99
0.93
0.91
0.91
0.94
0.93
0.98
1.08
1.15
1.11
1.14
1.16
1.09
1.1
1.09
1.07
1
1.02
1.03
1.02
1.07
1.07
1.05
0.99
1.05
1.02
1
0.94
0.96
1.05
1.11
1.23
1.28
1.22
1.17
1.15
1.09
1.02
0.99
0.98
1
0.98
1
1
0.97
0.94
0.95
0.91
0.88
0.83
0.8
0.81
0.82
0.91
1.09
1.2
1.19
1.2
1.17
1.11
1.01
1.02
1.03
0.99
1.02
1.09
1.13
1.11
1.13
1.12
1.05
1.08
1.07
1.01
0.99
1
1.08
1.1
1.07
1.09
1.11
1.07
0.99
1
1
0.97
0.95
1.01
1.02
1
0.99
1.04
1.04
1.01
1.01
1.01
1.02
0.97
0.94
0.97
1.04
1.01
0.97
0.98
1.02
1.02
0.98
0.99
1.01
1
0.96
1.03
1.06
0.99
0.98
1
1.07
1.05
1.14
1.04
0.99
1.01
1.08
1.1
1.16
1.19
1.14
1.13
1.11
1.04
0.99
1.02
0.98
0.94
0.96
1
1.07
1.09
1.06
1.05
1.02
0.99
0.97
0.98
1.01
1
1.03
1.02
0.97
1.01
1.03
1.02
0.97
1.01
1.06
1.01
0.98
1.01
1.12
1.2
1.13
1.2
1.12
1.21
1.3
1.24
1.24
1.25
1.2
1.24
1.27
1.29
1.22
1.18
1.19
1.15
1.08
1.08
1.05
0.98
0.98
0.97
0.97
0.94
0.93
0.93
0.89
0.89
0.88
0.89
0.87
0.84
0.86
0.86
0.87
0.86
0.87
0.89
0.91
0.89
0.87
0.87
0.87
0.86
0.88
0.92
0.96
0.99
0.96
0.98
0.93
0.91
0.89
0.89
0.92
0.94
0.96
0.97
1
0.99
0.94
0.9
0.89
0.86
0.83
0.82
0.82
0.82
0.8
0.82
0.95
1.13
1.04
1.12
1.12
1.06
1.02
0.93
0.94
0.95
0.95
0.91
0.93
0.96
0.98
1.01
0.96
0.95
0.94
0.94
0.88
0.87
0.91
0.94
0.94
1.06
1.14
1.17
1.18
1.19
1.22
1.19
1.18
1.24
1.13
1.11
1.12
1.1
1.07
1.07
1.05
1.01
1
0.96
0.93
0.96
0.98
0.94
0.92
0.92
0.92
0.91
0.88
0.88
0.86
0.87
0.84
0.84
0.84
0.86
0.87
0.86
0.87
0.88
0.87
0.87
0.84
0.87
0.87
0.88
0.87
0.86
0.89
0.9
0.9
0.88
0.9
0.9
0.91
0.88
0.88
0.89
0.9
0.92
0.95
0.95
1.03
1.07
1.14
1.13
1.05
1.04
1.01
0.96
0.99
1.01
0.97
1
1
1
0.98
0.95
0.93
0.93
0.9
0.93
0.91
0.91
0.93
0.92
0.91
0.92
0.93
0.96
1
1.04
0.94
0.9
0.87
0.88
0.92
1
1.03
0.99
0.96
0.99
0.99
0.92
0.91
0.9
0.88
0.86
0.87
0.86
0.86
0.85
0.86
0.87
0.87
0.86
0.89
0.9
0.88
0.86
0.88
0.88
0.88
0.86
0.86
0.86
0.85
0.84
0.83
0.84
0.84
0.85
0.84
0.83
0.84
0.85
0.89
0.91
1
1.01
0.99
0.98
0.98
0.98
0.95
0.93
0.93
0.93
0.93
0.92
0.93
0.94
0.93
0.91
0.9
0.95
0.97
0.99
0.95
0.96
0.96
0.94
0.89
0.9
0.9
0.87
0.87
0.89
0.9
0.87
0.89
0.9
0.92
0.98
1
1.01
1.01
0.96
0.95
0.94
0.97
0.96
0.94
0.96
0.97
0.98
0.94
0.96
0.97
0.99
1.07
1.22
1.27
1.21
1.24
1.23
1.27
1.17
1.1
1.05
1.08
1.09
1.05
1.02
1.03
0.99
0.92
0.92
0.9
0.88
0.86
0.86
0.85
0.85
0.86
0.85
0.86
0.88
0.91
0.88
0.9
0.89
0.93
0.96
0.94
0.94
0.94
0.91
0.89
0.9
0.91
0.92
0.89
0.91
0.92
0.92
0.93
0.9
0.93
0.91
0.91
0.89
0.89
0.88
0.89
0.9
0.88
0.9
0.94
0.94
0.94
0.98
0.98
0.94
0.94
0.93
0.9
0.91
0.94
0.99
0.96
0.97
1
1.01
1.04
1.02
0.99
0.99
0.98
0.97
0.96
0.98
0.99
0.95
0.92
0.94
0.93
0.9
0.86
0.84
0.83
0.84
0.86
0.88
0.89
0.95
0.98
0.98
0.95
0.96
0.95
0.91
0.91
0.9
0.92
0.91
0.9
0.91
0.93
0.94
0.9
0.92
0.9
0.91
0.9
0.91
0.93
0.94
0.93
0.95
0.97
0.95
0.96
0.97
0.96
0.94
0.94
0.92
0.9
0.89
0.37
0.49
0.85
0.83
0.83
0.87
0.94
1
1.01
1.05
1.07
1.02
1
0.97
0.94
0.9
0.88
0.89
0.89
0.89
0.88
0.88
0.9
0.94
0.96
1.01
1.05
1.02
1.04
1.04
1
1.03
1.05
1.04
1.11
1.1
1.09
1.17
1.13
1.09
1.14
1.15
1.14
1.2
1.14
1.09
1.04
1.03
1.01
0.99
1
1.02
1.02
0.98
0.97
0.96
0.94
0.91
0.88
0.89
0.87
0.86
0.89
0.91
0.93
0.94
0.98
0.96
0.95
0.97
0.95
0.97
0.96
0.95
0.95
0.96
0.96
0.96
0.94
0.97
0.98
0.96
0.96
0.95
0.92
0.93
0.91
0.92
0.88
0.86
0.88
0.87
0.85
0.84
0.83
0.84
0.82
0.84
0.85
0.87
0.89
0.87
0.88
0.88
0.86
0.83
0.85
0.84
0.85
0.85
0.84
0.85
0.85
0.84
0.84
0.83
0.83
0.83
0.84
0.84
0.85
0.87
0.89
0.87
0.88
0.89
0.89
0.86
0.89
0.88
0.86
0.86
0.88
0.91
0.9
0.93
0.96
0.93
0.92
0.95
0.97
0.98
1.05
1.11
1.17
1.14
1.08
1.09
1.07
1.18
1.19
1.17
1.15
1.11
1.13
1.1
1.09
1.04
1.03
1.03
0.98
1.02
0.97
0.97
1.03
1.05
1.11
1.08
1.02
1.01
0.98
1.02
1.04
1.05
1.03
0.98
0.96
0.92
0.9
0.9
0.86
0.86
0.84
0.83
0.81
0.8
0.78
0.78
0.76
0.75
0.74
0.74
0.73
0.73
0.72
0.72
0.72
0.72
0.72
0.72
0.73
0.73
0.74
0.76
0.76
0.78
0.79
0.78
0.78
0.77
0.77
0.79
0.81
0.81
0.82
0.83
0.83
0.83
0.85
0.83
0.84
0.84
0.86
0.84
0.83
0.82
0.82
0.81
0.81
0.81
0.81
0.83
0.82
0.81
0.81
0.8
0.8
0.8
0.8
0.82
0.81
0.83
0.84
0.87
0.87
0.87
0.87
0.87
0.87
0.83
0.86
0.86
0.9
0.92
0.89
0.9
0.91
0.92
0.91
0.89
0.87
0.85
0.84
0.84
0.85
0.83
0.84
0.83
0.84
0.83
0.82
0.83
0.83
0.84
0.84
0.83
0.84
0.86
0.87
0.88
0.88
0.89
0.9
0.9
0.91
0.88
0.89
0.89
0.89
0.86
0.86
0.89
0.9
0.92
0.88
0.86
0.87
0.86
0.88
0.86
0.88
0.89
0.89
0.9
0.87
0.87
0.88
0.88
0.87
0.87
0.87
0.89
0.89
0.87
0.85
0.83
0.81
0.81
0.8
0.84
0.87
0.88
0.87
0.9
0.9
0.3
0.56
0.85
0.84
0.82
0.8
0.79
0.79
0.75
0.75
0.74
0.72
0.72
0.72
0.72
0.71
0.72
0.7
0.68
0.7
0.7
0.7
0.71
0.72
0.74
0.73
0.74
0.72
0.72
0.71
0.7
0.69
0.68
0.68
0.69
0.66
0.7
0.76
0.78
0.79
0.81
0.81
0.83
0.86
0.85
0.85
0.89
0.87
0.85
0.87
0.87
0.83
0.83
0.84
0.89
0.92
1
1.05
1.02
0.98
0.99
0.99
1.03
0.99
0.99
0.98
1
0.99
1.06
1.08
1.05
0.99
1
1
1.01
0.98
1
1.04
1
0.95
0.96
0.95
0.92
0.9
0.9
0.9
0.9
0.87
0.88
0.89
0.92
0.9
0.91
0.89
0.89
0.84
0.84
0.86
0.88
0.85
0.83
0.81
0.8
0.79
0.77
0.77
0.76
0.75
0.68
1.53
0.74
0.73
0.72
0.72
0.72
0.69
0.7
0.69
0.69
0.69
0.69
0.72
0.79
0.95
1.02
1.03
1.1
1.08
1.02
0.93
0.89
0.86
0.82
0.8
0.78
0.8
0.88
0.93
1.01
1.1
1.07
1
0.95
0.96
0.98
1.01
0.97
0.99
1.03
1.03
1.02
1.04
1.05
1.01
0.93
0.95
0.98
1.05
1.06
1.09
1.07
1.03
1
1
0.95
0.94
0.95
0.94
0.91
0.89
0.93
0.94
0.95
0.92
0.91
0.94
0.96
0.94
0.9
0.86
0.84
0.82
0.79
1.57
3.92
1.54
0.75
1.49
0.74
0.73
0.73
0.72
0.72
0.73
0.73
0.77
0.81
0.89
0.92
0.92
0.96
0.96
0.94
0.92
0.92
0.86
0.84
0.88
0.91
0.96
1.03
0.99
1.73
0.95
0.74
0.99
0.86
0.84
0.82
0.81
0.81
0.82
0.85
0.94
0.93
0.92
0.91
0.91
0.85
0.83
0.84
0.82
0.81
0.83
0.89
0.95
0.95
0.92
0.88
0.89
0.87
0.88
0.86
0.84
0.84
0.83
0.81
0.82
0.82
0.81
0.83
0.84
0.88
0.87
0.88
0.86
1.12
0.42
0.99
0.79
0.8
0.78
0.77
1.4
0.83
0.72
0.72
2.07
0.59
0.79
0.74
2.33
2.95
0.75
3.73
0.41
0.73
0.29
0.42
0.73
0.68
0.77
0.87
1.57
0.78
0.77
0.67
0.82
0.75
0.74
0.73
0.72
0.72
0.72
0.73
0.73
0.77
0.8
0.83
0.84
0.86
0.94
0.97
0.94
0.91
0.91
0.92
0.91
0.87
0.93
0.94
0.86
0.82
0.84
0.82
0.84
0.83
0.87
0.88
0.86
0.84
0.84
0.89
0.94
0.95
0.9
0.97
0.96
0.99
0.92
0.95
0.98
0.99
0.93
0.9
0.91
0.82
0.99
0.86
0.83
0.79
0.76
0.76
0.75
0.74
0.73
0.72
0.71
0.73
0.74
0.8
0.87
0.94
0.92
0.91
0.92
0.9
0.86
0.92
0.94
0.94
0.9
0.92
0.92
0.93
0.89
0.83
0.81
0.76
0.76
0.77
0.79
0.95
1.08
1.11
1.05
1.05
1.03
0.98
0.92
0.95
0.98
1.05
0.99
0.99
1.11
1.14
1.06
0.98
1.01
1.02
1.04
0.98
0.98
1.04
1.05
1.01
0.93
0.93
0.98
1.04
1.04
0.97
1
1.01
0.97
0.93
0.94
0.95
0.97
0.92
0.94
0.94
0.95
0.91
0.96
1.03
1.06
1
0.98
0.99
0.99
0.96
0.97
0.98
0.99
0.94
0.92
0.99
1.04
1.03
1.01
1.03
1.01
0.96
0.9
0.92
0.87
0.82
0.79
0.81
0.88
0.93
1.02
1.06
0.94
0.72
1.35
0.52
0.78
0.75
0.75
0.72
0.72
0.71
0.71
0.72
0.73
0.72
0.74
0.81
0.98
0.88
0.93
0.88
0.83
0.83
0.88
1
1.04
1.01
1.01
1.04
1.01
0.97
0.92
0.83
0.83
0.79
0.79
0.83
0.99
1.05
1.01
1.06
1.06
1.04
0.9
0.9
0.86
0.83
0.8
0.8
0.85
0.93
0.98
1.08
1.09
1.01
0.99
1
0.98
0.94
0.95
0.99
1.01
0.96
0.96
0.98
1
0.94
0.89
0.88
0.9
0.94
0.9
0.94
1
0.9
0.84
0.82
0.83
0.86
0.88
0.96
1.04
1.07
1.01
1
1
1.04
1.02
0.97
1.01
1.05
1.03
0.98
1.03
1.03
1.04
0.98
0.97
0.97
0.97
0.9
0.89
0.93
0.89
0.83
0.82
0.87
0.91
1
0.71
0.21
0.94
0.89
0.84
0.81
0.78
0.77
0.77
0.76
0.76
0.78
0.77
0.77
0.78
0.9
1.01
0.97
1.02
1.02
1
0.94
1
1
0.99
0.88
0.91
0.89
0.84
0.81
0.81
0.86
0.91
0.94
1.03
0.94
0.99
0.98
0.91
0.84
0.83
0.85
0.89
0.86
0.93
1.01
1.07
1.02
0.99
1.01
1.02
1.03
0.98
0.97
1.01
1.05
1
0.97
1
1.02
1.01
0.97
0.99
0.91
0.84
0.81
0.83
0.87
0.86
0.97
1.04
1.03
0.96
0.97
1.01
1.03
0.96
0.97
0.97
0.92
0.85
0.83
0.83
0.87
0.87
0.9
0.96
0.98
0.96
0.91
0.88
0.88
0.85
0.83
0.81
0.78
0.47
0.35
0.8
0.82
0.86
0.87
0.88
0.85
1.55
0.87
0.78
0.76
0.75
0.76
0.75
0.74
0.74
0.77
0.77
0.81
0.82
0.82
0.84
0.85
0.82
0.81
0.79
0.84
1
1.06
1.02
1.06
1.01
0.99
0.86
0.76
0.93
0.82
0.82
0.84
0.88
0.88
0.89
0.93
0.93
0.94
0.9
0.94
0.98
0.96
0.9
0.94
0.87
0.83
0.81
0.81
0.85
0.97
1
1.11
1.13
1.08
1.01
1.01
0.99
0.95
0.9
0.92
0.95
0.93
0.87
0.85
0.93
1.01
0.99
1.03
1.08
1.05
1.02
0.95
0.97
0.99
1
0.99
0.96
1.03
1.06
1.04
0.98
1
0.99
0.98
0.92
0.95
1.01
1.04
1
1.02
1.02
1
0.97
0.98
1.01
0.98
0.93
0.96
1.03
1.04
0.99
1.01
1.04
1.02
0.95
1.01
1.01
0.94
0.87
0.82
0.8
0.83
0.89
1.75
0.87
0.87
0.84
0.81
0.8
0.85
0.93
0.91
0.98
1.03
1.04
1.02
0.98
1.02
1.06
1.02
0.92
0.93
0.97
1.02
0.91
0.85
0.83
0.88
0.99
1
1.12
1.11
1.07
0.93
0.91
0.88
0.85
0.82
0.81
0.89
1.04
1.07
1.12
1.14
0.94
0.91
0.87
0.83
0.81
0.78
0.84
0.9
0.58
0.57
0.64
0.87
0.85
0.82
0.8
0.8
0.83
0.86
0.93
0.96
0.91
0.85
0.85
0.9
0.99
1.05
0.99
1
1.01
0.99
0.89
0.83
0.8
0.82
0.88
0.9
1.01
1.04
0.99
0.95
0.88
0.85
0.86
0.9
0.94
0.95
0.91
1.02
1
0.93
0.85
0.84
0.85
0.86
0.9
1.02
1.02
1
1
1
1
0.93
0.93
0.92
0.91
0.84
0.81
0.85
0.72
2.84
0.34
2.65
0.74
0.29
1.31
0.42
0.26
0.38
0.43
0.72
0.71
0.69
1.2
0.47
0.39
0.65
1.33
0.5
0.85
0.55
1.23
0.98
0.94
0.95
0.88
0.88
0.96
1.03
0.98
0.95
0.83
0.85
0.82
1.75
0.88
0.86
0.81
0.78
0.77
0.77
0.76
0.77
0.81
0.89
0.96
0.96
0.87
0.86
0.87
0.89
0.92
0.94
0.87
0.83
0.79
0.79
0.77
0.76
0.74
0.75
0.76
0.8
0.83
0.88
0.99
1.02
1
0.9
0.91
0.91
0.92
0.9
0.88
0.97
1.1
1.04
0.94
0.98
0.98
0.96
0.9
0.9
0.85
0.83
0.8
0.78
0.81
0.93
0.98
0.94
1.01
0.81
1
0.87
0.85
0.82
0.8
0.8
0.79
0.77
0.77
0.84
0.95
1.04
1.13
1.1
1.01
1.03
1.02
1.01
0.97
0.96
0.99
1.03
1.03
0.98
0.95
1.01
1.07
1.06
1
0.97
0.98
0.96
0.96
0.9
0.94
0.92
0.89
0.84
0.83
0.82
0.89
0.97
0.95
1
0.98
0.92
0.92
0.89
0.88
0.85
0.9
0.93
0.95
0.99
1.05
1.04
0.98
0.97
0.99
1
0.94
0.96
0.97
1.03
1.03
1.08
1.08
1.02
1.01
1.01
1.03
1.01
0.97
1.03
1.02
0.98
0.87
0.85
0.88
0.88
0.91
0.97
1
0.98
0.9
0.91
0.94
0.99
0.97
0.95
1.03
1.09
1.09
1.02
1.04
1.04
1.01
0.96
0.93
0.97
1.08
1.08
1.1
1.13
1.1
1.07
1.07
1.05
1
0.93
0.93
0.9
0.85
0.81
0.82
0.93
1.03
1.02
1.08
1.17
1.06
0.98
0.9
0.83
0.79
0.76
0.76
0.81
0.94
1.07
1.09
1.03
1.04
1.04
0.87
0.35
0.58
0.91
0.88
0.84
0.81
0.8
0.78
0.78
0.78
0.79
0.9
1.06
1.1
1.03
1
0.99
0.88
0.84
0.85
0.91
1.02
1.06
1.03
1.04
1.02
0.91
0.84
0.85
0.91
1.01
0.98
1.02
1
0.98
0.87
0.84
0.85
0.88
0.91
0.99
1.02
0.97
0.91
0.93
0.91
0.85
0.83
0.86
0.89
0.93
1.01
1.05
0.99
1.02
1.02
1.01
0.94
0.96
0.97
1
0.97
1.02
1.06
1.06
1.02
1.05
1.07
1.05
1.03
1.05
1.07
1.03
1.04
1.03
0.99
0.95
1.01
1.06
1.05
1.03
1.06
1.07
1.02
0.99
1
1.03
1
0.95
0.98
0.97
1.01
1
1.03
1.06
1.02
0.98
1.02
1.06
1.04
1.01
1.05
1.05
1.03
0.98
1.03
1.02
0.99
1.04
1.07
1.08
1.05
1.06
1.01
0.95
0.9
0.94
0.97
0.92
0.83
0.84
0.85
0.88
0.85
0.82
0.82
0.8
0.81
0.73
0.88
0.64
0.94
0.77
2.22
1.44
0.72
0.72
0.71
0.71
0.75
0.75
0.85
0.83
0.82
0.79
0.79
0.79
0.79
0.77
0.77
0.79
0.86
0.86
0.89
1
1.07
1.01
0.94
0.94
0.98
1.01
0.96
1.01
1.04
1.05
0.99
1.05
1.1
1.07
1.06
1.09
1.09
1.06
1.04
1.09
1.11
1.05
1.06
1.08
1.06
1.02
1.06
1.08
1.05
1.04
1.08
1.06
0.97
0.99
1
0.98
0.87
0.84
0.89
1.08
1.08
1.13
1.14
1.1
1.03
1.02
1.02
0.97
0.95
1.03
1.09
1.06
1.04
1.1
1.12
1.07
1.07
1.07
1.05
1.01
1.03
1.05
0.99
0.94
0.9
0.89
0.82
0.79
0.77
0.84
2.01
0.99
0.98
0.88
0.91
0.92
0.98
1.02
0.98
0.94
0.98
1.06
1.03
0.92
0.9
0.87
0.83
0.82
0.87
1.07
1.07
1.09
1.13
1.16
1.09
1.02
1.07
1.14
1.14
1.12
1.13
1.14
1.09
1.02
1.02
1.08
1.07
1.06
1.1
1.11
1.06
1.08
1.08
1.06
1.03
1.08
1.11
1.11
1.05
1.08
1.08
1.05
1.08
1.1
1.1
1.05
1.06
1.07
1.05
1.01
1.02
1.04
1.01
1.04
1.08
1.09
1.07
1.07
1.09
1.02
1.05
1.04
1.04
1.01
1.02
1.03
1.02
0.97
0.94
0.98
1.06
1.05
1.08
1.14
1.14
1.06
1.1
1.08
1.03
1.05
1.06
1.05
1.02
1.03
1.07
1.03
1.01
1.02
1.02
0.98
1.06
1.09
1.08
1.08
1.1
1.1
1.08
1.03
1.01
1.02
0.97
0.94
1.01
1.03
1
1.04
1.04
1.02
1
1.03
1.04
1.01
1.04
1.09
1.11
1.04
1.07
1.1
1.08
1.11
1.09
1.07
1.09
1.06
1.04
1.08
1.04
1.01
1.03
1.09
1.05
1
1.04
1.04
1.03
1
1.07
1.19
1.14
1.16
1.19
1.19
1.08
1.08
1.09
1.05
1.01
1.03
1.03
1.01
1
1.05
1.05
1.05
1.07
1.06
1.04
1
1.04
1.07
1.06
1.03
1.05
1.07
1.03
1.05
1.03
0.99
0.93
0.98
1.03
1.05
1.04
1.09
1.08
0.99
1.02
0.95
0.89
0.88
0.87
0.82
0.83
0.94
1.06
1.23
1.22
1.2
1.18
1.17
1.12
1.09
1.04
1.04
1.06
1.05
0.97
0.97
1.05
1.1
1.24
1.28
1.26
1.21
1.23
1.21
1.12
1.06
1.06
1.13
1.09
1.15
1.18
1.15
1.1
1.1
1.13
1.09
1.02
1.06
1.02
0.97
1.04
1.06
1.02
1.04
1.1
1.12
1.09
1.12
1.1
1.02
1.02
1.06
1.03
1.03
1.08
1.13
1.12
1.11
1.1
1.05
1.04
1.06
1.05
1
1.04
1.1
1.11
1.05
1.09
1.09
1.05
1.08
1.1
1.11
1.07
1.11
1.13
1.04
1.01
0.99
0.93
0.92
0.89
0.89
0.84
0.82
0.81
0.84
0.79
0.84
0.81
0.91
0.85
0.84
0.82
0.81
0.79
0.8
0.82
0.85
0.92
1.04
1.11
1.13
1.16
1.22
1.23
1.2
1.14
1.16
1.15
1.11
1.13
1.09
1.03
0.96
0.97
1.11
1.22
1.12
1.08
1.18
1.21
1.16
1.13
1.19
1.18
1.11
1.04
1.05
1.09
1.05
1.13
1.06
1.02
0.96
0.87
0.9
0.93
0.93
0.91
1.28
1.24
1.26
1.26
1.19
1.1
1.1
1.09
1.04
1.01
1.04
1.08
1.08
1.17
1.2
1.15
1.09
1.09
1.08
1.14
1.04
1.01
1.1
1.14
1.15
1.16
1.18
1.13
1.1
1.09
1.08
1.05
1.07
1.07
1.1
1.02
1.03
1.03
1.02
1.08
1.09
1.12
1.12
1.08
1.1
1.09
1.12
1.02
1
0.97
0.92
0.86
0.85
0.9
1.02
1.08
1.07
1.08
1.04
1.06
1.02
0.99
0.9
0.82
0.8
0.8
0.78
0.76
0.78
0.84
1.01
1.03
1.12
1.21
1.2
1.11
1.09
1.06
1.05
1.02
1.07
1.16
1.1
1.07
0.98
1.04
1.13
1.17
1.15
1.19
1.21
1.14
1.09
1.11
1.07
1.03
1.02
1.15
1.21
1.16
1.16
1.15
1.1
1.01
0.98
0.97
1.01
0.97
1.03
1.11
1.15
1.09
1.14
1.12
1.07
1.07
1.08
1.08
1.02
1.07
1.09
1.06
1.05
1.08
1.05
0.99
1.01
1.05
1.05
1.01
1.05
1.07
1.04
1.06
1.08
1.02
0.93
0.92
0.94
0.98
1.06
1.17
1.18
1.11
1.16
1.16
1.09
1.12
1.14
1.12
1.13
1.09
1.04
0.99
1
1
1.13
1.23
1.17
1.21
1.17
1.12
1.1
1.1
1.09
1.03
1.05
1.08
1.09
1.08
1.11
1.12
1.06
1.09
1.05
1.01
1.03
1.06
1.1
1.09
1.16
1.16
1.06
1
1.01
1.04
0.94
0.28
0.61
0.89
0.93
0.96
1.07
1.1
1.03
1.08
1.01
0.9
0.89
0.87
0.82
0.82
0.78
0.78
0.77
0.78
0.8
0.8
0.84
0.9
1.01
1
0.95
1
1.01
1.03
0.9
0.88
0.88
0.95
1.07
1.08
1.16
1.18
1.14
1.07
1.13
1.13
1.09
1.06
1.11
1.13
1.09
1
1.01
1.08
1.09
1.07
1.1
1.11
1.11
1.12
1.16
1.12
1.04
0.98
0.98
0.96
0.99
0.95
1
1.07
1
0.98
0.93
0.89
0.84
0.87
1.03
1.04
1.14
1.18
1.17
1.12
1.11
1.07
1.02
1.03
1.07
1.11
1.08
1.09
1.09
1.06
1
1
1.04
1.09
1.07
1.08
1.11
1.09
1.06
1.07
1.07
1.06
1.01
1.05
1.04
1
0.98
1.03
1.02
0.99
0.99
1.06
1.12
1.15
1.22
1.22
1.14
1.16
1.11
1.06
0.98
1.01
1.03
1.06
1.09
1.07
1.08
1.12
1.1
1.02
1.03
1.02
0.98
1.02
1.11
1.15
1.08
1.1
1.13
1.11
1.03
1.04
1.06
1.08
1.04
1.06
1.07
0.99
1.03
1.03
0.98
1
1.02
1.06
1.03
1.06
1.1
1.05
1.07
1.1
1.07
1.05
1.01
1
0.97
0.99
0.96
0.95
0.94
0.98
1
1
0.98
1
0.93
0.87
0.87
0.83
0.81
0.8
0.78
0.75
0.74
0.74
0.74
1.45
0.74
0.73
0.74
0.74
0.72
0.73
0.71
0.71
0.72
0.73
0.73
0.79
0.85
0.99
0.97
0.95
0.99
1.06
1.04
1.01
1.1
1.1
1.01
0.94
0.97
0.93
0.87
0.83
1.65
0.83
0.85
0.84
0.8
0.82
0.86
1.06
1.04
1.12
1.14
1.12
1.07
1.13
1.16
1.08
1.08
1.13
1.18
1.13
1.13
1.14
1.08
1.01
1.05
1.12
1.15
1.12
1.19
1.23
1.19
1.11
1.09
1.09
1.04
1.07
1.13
1.12
1.05
1.05
1.09
1.14
1.06
1.06
1.08
1.08
1.03
1.09
1.12
1.11
1.13
1.12
1.09
1.03
1.02
1.04
0.97
0.94
0.95
0.92
0.88
0.91
0.92
0.89
0.88
0.98
1.06
1.01
1.09
1
0.91
0.85
0.83
0.85
1.04
1.1
1.14
1.19
1.18
1.14
1.15
1.1
1.06
1.01
1.09
1.19
1.14
1.1
1.14
1.13
1.04
1.06
1.05
1.05
1.1
1.09
1.06
1.13
1.15
1.12
1.02
1.05
1.12
1.13
1.16
1.21
1.16
1.14
1.12
1.13
1.09
1.08
1.09
1.07
1.03
1.05
1.03
1.01
0.95
0.96
0.97
1.06
1.1
1.16
1.15
1.1
1.11
1.12
1.14
1.14
1.19
1.09
1.02
1.03
1
0.97
0.96
1.03
0.98
0.86
0.82
0.87
1.06
1.15
1.34
1.28
1.21
1.11
1.11
1.05
1.06
0.97
1
1.07
1.05
0.97
1.04
1.07
1.13
1.12
1.18
1.19
1.14
1.12
1.1
1.03
1.07
1.19
1.21
1.16
1.21
1.19
1.16
1.08
1.09
1.12
1.05
0.97
0.96
0.98
1.03
1.08
1.28
1.31
1.21
1.21
1.18
1.12
1.06
1.04
1.06
1.04
1.02
1.07
1.13
1.16
1.08
1.03
1.03
1.08
1.05
1.04
1.05
1.02
1.08
1.11
1.14
1.08
1.1
1.05
0.94
0.88
0.9
0.99
1.08
1.19
1.34
1.34
1.32
1.31
1.23
1.16
1.13
1.09
1.03
0.98
1.02
1.02
1.02
1.06
1.04
0.98
0.99
1.05
1.04
1.1
1.16
1.13
1.08
1.07
1.03
1.01
1.06
1.09
1.08
1.07
1.11
1.13
1.04
1
1
1.04
1.08
1.16
1.24
1.13
1.13
1.13
1.1
1.05
1.01
0.96
1.01
1.14
1.22
1.15
1.18
1.14
1.08
1.12
1.1
1.05
1.04
1.03
0.99
1
0.98
0.94
0.9
0.91
0.94
0.97
1.16
1.31
1.27
1.27
1.26
1.12
1.04
1.05
1.08
1.09
1.11
1.15
1.17
1.12
1.08
1.08
1.08
1.05
1.1
1.11
1.04
1.08
1.07
1.08
1.04
1.06
1.03
0.97
0.9
0.91
0.96
1.05
1.18
1.31
1.32
1.31
1.32
1.22
1.14
1.1
1.08
1.04
1.08
1.07
1.05
1.07
1.02
1.04
1.08
1.12
1.05
1.09
1.09
1.03
0.99
1.01
1.06
1.07
1.18
1.23
1.18
1.21
1.21
1.13
1.1
1.1
1.09
1.06
1.09
1.09
1.07
1.11
1.14
1.11
1.05
1.01
1.01
1.01
1
1.14
1.22
1.17
1.12
1.13
1.09
1.03
1.04
1.03
0.96
0.94
0.96
1
1.01
1.1
1.15
1.07
1.02
0.99
0.94
0.93
0.96
1.06
1.13
1.11
1.14
1.14
1.08
1.03
0.96
0.87
0.83
0.78
0.87
0.9
1.06
1.03
0.91
0.88
0.93
1.09
1.08
1.14
1.18
1.19
1.11
1.15
1.17
1.06
0.97
0.99
1.13
1.2
1.12
1.16
1.21
1.16
1.03
0.98
0.96
0.98
1.17
1.23
1.16
1.11
1.11
1.12
1.06
1.01
0.97
0.95
0.93
0.89
0.96
1.11
1.12
1.09
1.23
1.29
1.21
1.23
1.17
1.13
1.15
1.12
1.05
1
0.98
1.01
1.03
0.97
0.91
0.85
0.88
0.89
0.93
0.97
1.02
0.95
0.88
0.92
1.02
1.06
1.14
1.18
1.17
1.1
1.14
1.16
1.11
1.07
1.05
1.09
1.05
1.08
1.14
1.13
1.09
1.19
1.2
1.06
0.98
0.93
0.93
0.9
0.89
0.93
1.31
1.3
1.23
1.27
1.29
1.26
1.2
1.2
1.15
1.04
1.04
1.05
1.06
1.03
1.04
1.04
1.05
1
1
0.97
0.96
0.95
1.05
1.24
1.28
1.25
1.28
1.22
1.17
1.17
1.12
1.04
1.06
1.03
0.99
0.98
1.03
1.03
0.93
0.91
1.01
1.19
1.24
1.34
1.26
1.26
1.23
1.17
1.17
1.12
1.09
1.07
1.08
1.01
1.02
1.06
1.03
1.02
0.97
0.95
0.91
0.99
1.2
1.21
1.23
1.26
1.18
1.11
1.08
1.06
0.99
1
1.01
1.01
0.99
1
1.01
0.96
0.9
0.86
0.88
0.93
1.21
1.3
1.3
1.38
1.22
1.15
1.19
1.16
1.11
1.16
1.16
1.06
0.98
0.97
1.01
1.13
1.2
1.32
1.25
1.22
1.18
1.14
1.1
1.01
0.93
0.96
1.06
1.21
1.21
1.24
1.23
1.17
1.18
1.16
1.09
1.1
1.09
1.02
1
1
0.98
1.04
1.11
1.13
1.17
1.18
1.16
1.1
1.12
1.05
0.98
0.91
0.98
1.13
1.14
1.17
1.18
1.18
1.11
1.09
1.08
1.01
1.02
1.02
1.02
1
1.04
1.05
1.01
1
1.05
1.03
0.91
0.89
0.86
0.86
0.89
1.06
1.3
1.31
1.33
1.29
1.19
1.17
1.14
1.07
1.06
1.09
1.11
1.06
1.09
1.12
1.1
1.07
1.06
1.04
0.92
0.88
0.89
0.92
0.99
1.15
1.35
1.24
1.2
1.25
1.22
1.2
1.18
1.09
1.05
1.07
1.1
1.06
1.08
1.04
0.97
0.99
1.02
1.07
1.06
1.08
1.09
1.04
0.99
0.95
0.9
0.88
0.84
0.8
0.81
0.83
0.87
0.87
0.85
0.81
0.82
0.82
0.66
0.79
1.65
0.63
0.87
0.74
1
0.46
0.72
0.72
0.69
2.7
0.7
0.72
0.74
0.73
0.74
0.57
0.94
0.74
0.73
0.73
0.72
0.7
1.4
0.62
0.77
0.7
0.7
0.61
5.24
0.75
0.73
0.85
0.82
0.82
0.8
0.74
0.88
0.79
0.67
0.83
0.76
0.76
0.76
0.76
0.65
0.88
0.74
0.75
0.77
0.83
0.92
0.89
0.84
0.8
0.78
0.74
0.74
0.71
0.72
0.71
0.75
0.82
0.94
0.99
0.92
0.92
0.96
0.98
0.88
0.83
0.8
0.79
0.79
0.83
0.89
0.88
0.91
1.06
1
0.87
1.7
0.43
0.39
0.82
1.58
0.78
0.76
0.74
0.72
0.7
0.69
0.68
0.67
0.68
0.71
0.77
0.95
1.07
1
0.94
0.96
0.98
0.89
0.87
0.9
0.96
0.98
0.93
0.99
1.04
0.99
0.96
1
1.04
1
0.94
0.97
1.01
1.01
0.97
1.03
1.08
1.09
1.02
1.07
1.07
1.04
0.95
1
1.03
1.04
0.98
1.03
1.1
1.1
1.01
0.93
0.88
0.88
0.85
0.81
0.8
0.8
1.05
1.14
1.06
1.12
1.18
1.17
1.1
1.09
1.06
1.07
0.99
1.06
1.13
1.08
1.08
1.11
1.1
1.04
1.06
1.11
1.05
1.1
1.12
1.04
0.93
0.92
1.04
1.14
1.14
1.22
1.22
1.13
1.14
1.11
1.06
1.03
1.08
1.09
1.08
1.01
0.97
0.99
1.03
1.04
1.02
1.05
1.08
1.05
1.04
1.04
1.03
0.98
0.94
0.96
0.97
0.99
0.94
0.91
0.94
0.99
0.97
0.93
0.97
0.96
0.95
0.92
0.94
0.96
0.96
0.9
0.87
0.89
0.94
0.95
0.91
0.96
1.01
1.03
0.96
0.92
0.97
1.02
1
0.95
0.98
1.11
1.11
1.04
1.08
1.1
1.06
1.02
1.06
1.12
1.08
1.03
1
0.98
0.95
0.91
0.9
0.86
0.81
0.84
0.96
1
1.09
1.12
1.06
1
0.96
1
0.99
0.97
0.92
1.02
1.15
1.13
1.08
1.12
1.12
1.05
1
1.04
1.09
1.02
1
1.08
0.99
0.99
0.98
1.11
1.2
1.17
1.08
1.12
1.11
1.07
1.08
1.11
1.12
1.09
1.09
1.1
1.08
1.03
1.03
1.04
0.95
0.91
1.01
1.14
1.11
1.23
1.3
1.25
1.19
1.18
1.12
1.04
1.06
1.07
1.08
1.04
1.04
1.1
1.09
1.05
1.02
0.99
0.93
0.96
1.11
1.15
1.19
1.24
1.15
1.15
1.14
1.08
1.06
1.06
1.05
1.05
1.01
1.09
1.11
1.04
1.08
1.06
1.04
1.04
1.02
1
0.94
0.95
0.93
0.87
0.83
0.88
1.02
0.94
0.98
1.02
1.02
0.99
0.99
0.97
0.99
0.98
1.07
1.17
1.17
1.12
1.15
1.14
1.11
1.15
1.12
1.14
1.13
1.09
1.04
1.05
1.13
1.17
1.13
1.15
1.15
1.11
1.07
1.13
1.15
1.1
1.18
1.17
1.12
1.07
1.01
0.97
0.91
0.91
1.05
1.21
1.24
1.36
1.34
1.23
1.19
1.19
1.15
1.08
1.06
1.05
1
0.95
1
1.04
1.07
1.05
1.07
1.08
1.04
1.01
1.03
1.07
1.06
1.01
1.03
0.98
0.92
0.94
0.9
0.86
0.89
0.98
1.02
1.06
1.19
1.24
1.27
1.16
1.2
1.17
1.1
1.11
1.13
1.03
1.02
1.06
1.07
1.06
1.11
1.13
1.08
1.09
1.13
1.17
1.09
1.12
1.14
1.15
1.15
1.14
1.07
0.97
0.89
0.91
1.03
1.13
1.19
1.26
1.38
1.35
1.28
1.29
1.22
1.13
1.12
1.11
1.09
1.02
1.04
1.09
1.07
1.03
1.02
1.03
0.92
0.9
0.91
0.88
0.83
0.89
1.21
1.32
1.41
1.32
1.23
1.24
1.17
1.12
1.14
1.12
1.03
1.02
1.1
1.12
1.07
1.07
1.12
1.15
1.08
1.12
1.16
1.09
1.11
1.1
1.08
1.05
1.01
1.03
1.01
1.08
1.12
1.04
1.09
1.11
1.11
1.08
1.17
1.09
1.1
1.02
0.99
0.99
1.07
1.13
1.11
1.2
1.19
1.1
1.1
1.12
1.1
1.02
1.05
1
0.95
0.91
1
1.11
1.08
1.14
1.12
1.03
1.06
1.12
1.1
1.12
1.16
1.11
1.05
1.09
1.09
1.06
0.99
1.02
1.12
1.12
1.15
1.17
1.13
1.1
1.12
1.07
1.01
1.05
1.14
1.12
1.09
1.13
1.08
1.02
1.04
1.06
1
1.08
1.1
1.12
1.1
1.06
1.13
1.08
1.02
1.08
1.14
1.03
0.99
0.93
0.91
0.87
0.86
0.92
0.93
0.97
1.12
1.29
1.23
1.27
1.28
1.18
1.12
1.09
1.05
0.98
0.97
0.97
1
1.19
1.21
1.24
1.25
1.19
1.12
1.11
1.1
1.03
1
1.05
1.1
1.04
1.04
1.09
1
0.97
0.97
1
1.02
1.15
1.24
1.16
1.2
1.23
1.09
1.1
1.12
1.12
1.06
1.13
1.11
1.06
1.05
1.09
1.1
0.98
0.98
0.98
0.97
0.92
0.94
1.11
1.21
1.31
1.33
1.28
1.23
1.25
1.2
1.11
1.06
1.11
1.07
1.11
1.12
1.09
1.09
1.16
1.14
1.08
1.13
1.08
1
0.97
1.06
1.22
1.11
1.17
1.15
1.1
1.03
1.1
1.11
1.07
1.16
1.23
1.22
1.19
1.21
1.24
1.09
1.05
1.1
1.12
1.22
1.19
1.08
0.97
0.99
1.17
1.17
1.16
1.2
1.2
1.13
1.12
1.13
1.1
1.04
1.07
1.04
1.03
0.94
0.96
1.07
1.08
1.18
1.25
1.18
1.17
1.16
1.03
0.96
0.98
1.09
1.08
1.16
1.15
1.12
1.1
1.1
1.07
1.16
1.22
1.19
1.13
1.17
1.11
1.03
1.07
1.13
1.09
1.09
1.14
1.12
1.05
1.02
0.99
0.93
0.95
1.14
1.21
1.21
1.26
1.2
1.11
1.12
1.1
1.05
1.1
1.08
1.11
1.16
1.11
1.01
0.91
0.87
0.88
0.95
1.34
1.33
1.39
1.38
1.27
1.23
1.25
1.2
1.09
1.09
1.1
1.05
1.05
1.06
1.08
1.03
1.05
1.04
1
0.94
0.93
0.94
0.97
0.97
1.15
1.16
1.1
1.12
1.16
1.09
1.08
1.14
1.06
1.02
1.08
1.12
1.09
1.15
1.17
1.11
1.15
1.14
1.06
0.98
0.94
0.97
1.02
1.14
1.16
1.16
1.11
1.12
1.16
1.12
1.17
1.12
1.09
1.12
1.13
1.05
1.07
1.05
0.98
0.97
0.93
0.92
0.95
1.27
1.33
1.25
1.29
1.25
1.18
1.17
1.19
1.09
1.05
1.09
1.1
1.06
1.09
1.14
1.16
1.08
1.11
1.07
0.97
0.97
1.08
1.17
1.13
1.16
1.14
1.05
1.05
1.08
1.02
1.03
1.03
1.04
1.09
1.07
1.04
1.1
1.13
1.1
1.1
1.08
1.01
0.98
0.92
0.9
0.86
0.95
1.03
1.04
0.97
1.08
1.15
1.13
1.24
1.24
1.22
1.21
1.25
1.2
1.18
1.19
1.13
1.14
1.16
1.1
1.01
1
1.03
1.1
1.08
0.99
0.97
1.1
1.19
1.13
1.17
1.19
1.18
1.07
1.08
1.09
1.04
1.02
1.05
1.03
0.97
0.95
1.03
1.05
1.01
0.96
0.93
0.95
0.99
1.18
1.25
1.15
1.17
1.17
1.11
1.09
1.14
1.1
1.04
1.09
1.1
1.11
1.15
1.08
1.04
1.07
1
0.9
0.88
0.92
1
1.17
1.32
1.26
1.39
1.39
1.24
1.22
1.25
1.15
1.04
1.07
1.09
1.1
1.18
1.15
1.07
1.06
1.09
1.09
1
0.94
0.89
0.89
0.89
1
1.22
1.17
1.23
1.18
1.11
1.12
1.11
1.02
1
1.06
1.08
1.03
1.09
1.11
1.07
1.01
0.95
0.91
0.89
1
1.31
1.27
1.3
1.39
1.32
1.2
1.15
1.08
1.11
1.05
1
1.06
1.04
1.02
1.1
1.05
1.04
1.2
1.27
1.2
1.18
1.17
1.11
1.1
1.12
1.13
1.07
1.08
1.12
1.1
1.12
1.12
1.12
1.05
0.97
0.95
0.99
1.05
1.24
1.31
1.25
1.26
1.24
1.17
1.14
1.15
1.12
1.05
1.05
1.04
1.02
1.01
1.08
1.06
1.01
1.03
0.97
0.94
0.94
1.04
1.17
1.12
1.19
1.17
1.21
1.15
1.08
1.06
1.02
0.95
0.99
1.03
1.03
1.05
1.05
1
0.93
0.96
1.04
1.05
1.16
1.2
1.14
1.14
1.13
1.1
1.1
1.1
1.08
1.06
1.11
1.09
1.03
1.1
1.07
1.11
1.17
1.15
1.1
1.07
1
1
1.13
1.21
1.17
1.18
1.16
1.08
1.06
1.08
1.14
1.06
1.12
1.12
1.08
1.11
1.11
1.05
1.06
1.1
1.13
1.04
0.97
0.93
0.92
0.91
1.14
1.26
1.22
1.22
1.25
1.19
1.15
1.13
1.06
1.03
1.07
1.05
1
1.03
1.12
1.07
1.1
1.11
1.1
1
0.97
0.93
0.89
0.89
1.04
1.26
1.21
1.25
1.26
1.12
1.05
1.08
1.09
1.06
1.11
1.19
1.16
1.13
1.16
1.12
1.1
1.15
1.11
1.03
0.94
0.91
0.96
1.01
0.94
0.97
1.1
1.17
1.28
1.29
1.17
1.2
1.19
1.11
1.09
1.11
1.08
1.02
1.03
1.1
1.1
1.12
1.15
1.16
1.06
1.05
1.05
1.01
0.96
0.93
0.94
0.96
1.12
1.16
1.11
1.06
1.02
1.06
1.04
1.08
1.08
1.08
1.11
1.08
1.05
1.1
1.11
1.09
1.12
1.15
1.06
1.08
1.14
1.09
1.15
1.08
0.95
0.92
0.94
1.08
1.11
1.21
1.23
1.16
1.16
1.17
1.11
1.07
1.09
1.1
1.02
1.03
1.03
1.04
1.01
1.08
1.12
1.06
1.07
1.07
0.94
0.92
0.97
1.06
1.11
1.2
1.16
1.16
1.18
1.16
1.08
1.09
1.07
1.05
1.07
1.11
1.08
1.1
1.09
1.06
1
1.04
1.04
1.09
1.02
1.1
1.14
1.08
1.06
1.03
0.99
0.94
1.05
1.05
1.03
1.09
1.11
1.05
1.05
1.09
1.1
1.04
1.1
1.13
1.09
1.15
1.18
1.12
1.11
1.13
1.03
1.03
1.07
1.11
1.07
1.17
1.16
1.18
1.19
1.12
1.05
1.04
0.98
0.95
1.01
1.11
1.09
1.05
1.13
1.18
1.13
1.07
1.1
1.12
1
0.98
1.01
1.02
1.01
1.03
1.05
1.06
0.97
0.95
0.96
1.01
1.02
1.08
1.12
1.11
1.11
1.04
1.03
1.02
0.96
0.98
0.97
0.96
1.03
1.06
1.05
1
1.06
1.07
1.02
1.04
1.06
1.04
1.05
1.06
1
0.95
0.95
1
1.02
1.11
1.16
1.09
1.14
1.12
1.1
1.1
1.14
1.13
1.06
1.06
1.09
1.03
1.06
1.08
1.04
1.03
1.06
0.97
0.87
0.85
0.91
1.09
1.06
1.29
1.32
1.23
1.27
1.25
1.29
1.29
1.26
1.19
1.17
1.15
1.03
1.05
1.09
1.14
1.17
1.13
1.15
1.12
1.03
0.96
0.91
0.86
0.87
0.99
1.16
1.32
1.36
1.28
1.38
1.33
1.19
1.21
1.17
1.09
1.09
1.11
1.06
1.02
1.07
1.1
1.04
1.11
1.13
1.05
1.09
1.12
1.04
1.07
1.09
1.03
0.9
0.88
0.96
1.11
1.27
1.33
1.26
1.25
1.25
1.2
1.14
1.16
1.11
1.05
1.07
1.03
0.97
0.99
1.1
1.07
1.04
1.06
1.09
1.08
0.99
0.98
0.92
0.9
1.03
1.23
1.21
1.18
1.25
1.19
1.12
1.12
1.05
1
1.07
1.11
1.07
1.05
1.1
1.11
1.09
1.14
1.14
1.06
1.04
1.05
1.15
1.18
1.27
1.22
1.11
1.08
1.11
1.07
1.13
1.16
1.12
1.07
1.13
1.15
1.12
1.19
1.21
1.13
1.14
1.15
1.09
1.03
1.03
1.04
1.03
1.13
1.13
1.04
1.06
1.05
1.03
0.96
0.91
0.99
1.09
1.11
1.1
1.16
1.12
1.12
1.17
1.17
1.05
1.09
1.07
1.04
1.04
1.1
1.08
1.09
1.11
1.07
1.03
1.07
1.07
1.02
1.04
1.05
0.99
0.93
0.92
0.92
0.91
1.03
1.15
1.11
1.13
1.19
1.1
1.12
1.15
1.09
1.09
1.06
1.05
1.06
1.06
1.11
1.11
1.06
1.07
1.05
1.04
1.09
1.13
1.03
1
1.01
1.02
1.02
1.12
1.18
1.12
1.1
1.15
1.13
1.06
1.06
1.08
1.06
1.01
1.09
1.12
1.06
1.06
1.08
1.06
0.99
1.02
1.01
0.93
0.93
1.07
1.17
1.16
1.19
1.21
1.14
1.13
1.14
1.07
1.11
1.06
1
0.94
0.97
0.99
1.02
1.05
1.03
1.01
1.06
1.1
1.03
1.04
1.03
1.03
0.97
0.93
0.92
0.95
1.05
1.16
1.19
1.16
1.19
1.13
1.09
1.1
1.05
1.05
1.07
1.03
1.08
1.13
1.12
1.15
1.13
1.06
1.05
1
1
0.94
0.9
0.85
0.91
1.21
1.14
1.21
1.17
1.11
1.06
1.1
1.08
1.03
1.09
1.08
1.01
1.04
1.02
0.99
0.94
0.99
1.04
1.04
1
1.1
1.06
1
1.01
1.03
1.07
1.11
1.16
1.18
1.14
1.14
1.1
1.02
0.99
1.01
1.01
0.99
1.04
1.03
1.02
1.07
0.99
0.95
0.97
0.93
0.94
0.95
0.96
1.05
1.15
1.14
1.09
1.11
1.07
1.01
1.06
1.06
1.03
1.11
1.11
1.05
0.97
1.04
1.1
1.15
1.33
1.29
1.24
1.25
1.23
1.13
1.14
1.15
1.07
1.07
0.97
0.89
0.89
0.99
1.14
1.15
1.17
1.16
1.11
1.15
1.13
1.09
1.14
1.12
1.08
1.1
1.09
1.04
1.02
1.06
1.05
1.05
1.02
1.02
0.94
0.96
0.98
0.94
0.88
0.9
1
1.09
1.02
1.06
1.1
1.08
1.01
1.03
1.05
1
1.01
1.05
1.04
1.09
1.13
1.12
1.1
1.12
1.1
1.05
1.07
1.07
1.08
1.02
0.97
0.9
0.89
0.99
1.09
1.12
1.16
1.21
1.14
1.18
1.17
1.07
1.06
1.11
1.02
1.04
1.1
1.1
1.1
1.18
1.11
1.09
1.15
1.04
0.97
0.91
0.96
1.28
1.23
1.29
1.33
1.27
1.25
1.24
1.14
1.1
1.1
1.06
1.04
1.03
1.03
1.02
1.16
1.15
1.08
1.1
1.08
1.1
1.09
1.08
1.14
1.11
1.05
0.96
0.91
0.91
0.97
1.31
1.33
1.25
1.24
1.19
1.14
1.19
1.17
1.09
1.1
1.12
1.09
1.07
1.04
0.99
0.97
0.98
1.04
1.04
1.06
1.1
1.1
1.04
1.07
1.07
1.01
0.98
1.02
1
0.92
0.87
0.85
0.85
0.91
1.26
1.36
1.26
1.16
1.02
0.94
0.86
0.81
0.8
0.78
0.76
0.71
0.85
0.77
0.68
0.84
0.74
0.73
0.64
0.77
0.69
0.6
0.78
0.66
0.69
0.55
0.8
0.67
0.68
0.68
0.56
0.8
0.69
0.6
0.77
0.69
0.69
0.69
0.7
0.68
0.67
0.67
0.65
0.65
0.65
0.64
0.66
0.68
0.73
0.76
0.8
0.89
0.92
0.88
0.83
0.81
0.83
0.82
0.82
0.82
0.73
0.84
0.89
0.83
0.81
1.11
1.95
0.61
0.83
0.7
0.69
0.67
0.67
0.27
0.23
0.82
0.64
0.65
0.64
0.7
0.82
0.83
1.01
1.18
1.03
0.96
0.99
0.96
0.93
0.93
0.88
0.74
0.86
0.77
0.77
0.76
0.76
0.76
0.47
0.27
0.73
0.72
0.7
0.71
0.75
0.82
0.87
0.96
1.01
1.02
0.96
0.9
0.85
0.85
0.88
1.03
1.01
1.05
1.12
1.09
1.05
1.09
1.09
1.07
1
1.04
1.1
1.07
0.99
1.08
1.12
1.08
1
1
1.01
1
0.96
0.92
1
1.04
0.99
1
1.04
1.03
0.97
1.01
1.05
1.05
1.02
1.01
0.98
0.94
0.91
0.96
1
1.01
0.96
0.9
0.86
0.81
0.79
0.79
0.85
1.06
1.14
1.23
1.21
1.14
1.12
1.12
1.07
0.99
0.97
1.06
1.15
1.08
1.11
1.11
1.09
1
1.05
1.13
1.15
1.14
1.19
1.18
1.1
1.03
1.01
0.98
0.94
1.03
1.1
1.12
1.12
1.12
1.1
1.05
1
0.98
0.99
0.98
1.1
1.15
1.08
1.1
1.08
1.04
0.95
0.91
0.89
0.91
0.98
1.14
1.27
1.23
1.21
1.17
1.07
1
1.02
1.06
1.05
1.07
1.1
1.1
1.19
1.13
1.07
1.06
1.07
1.07
0.98
0.95
1.01
1.02
0.95
0.99
1.05
1.09
1.19
1.22
1.17
1.14
1.1
1.07
1.04
1.01
1.04
1.03
1
0.97
1.05
1.09
1.06
1.08
1
0.94
0.85
0.86
0.84
0.85
0.9
1.07
1.21
1.2
1.21
1.19
1.15
1.07
1.08
1.07
1.01
0.97
1.03
1.12
1.13
1.2
1.21
1.15
1.13
1.1
1.07
1.01
1.02
1.06
1.09
0.99
0.95
0.94
0.95
0.93
1.03
1.16
1.17
1.19
1.17
1.12
1.09
1.07
1.11
1.04
1.07
1.1
1.08
1.03
1.09
1.1
1.08
1.05
1.09
1.1
1.08
1.1
1.1
1.09
1.06
1.05
1.06
1.02
1
1.06
1.11
1.08
1.07
1.13
1.03
0.98
0.92
0.96
0.98
1.05
1.1
1.24
1.22
1.26
1.28
1.25
1.17
1.19
1.13
1.08
1.1
1.08
1.14
1.13
1.11
1.12
1.17
1.14
1.05
1.06
1.04
1.04
1.05
1.04
1.03
1.04
1.07
1.1
1.04
1.07
1.06
0.99
1.02
1.06
1.12
1.06
1.05
1.09
1.11
1.07
1.08
1.08
1.08
1.04
1.02
1.01
1.01
0.99
1.01
1.03
1.05
1.02
1.11
1.15
1.07
1.09
1.08
1.04
1.03
1.08
1.1
1.06
1.04
1.09
1.1
1.06
1.08
1.08
1.07
0.98
0.97
1.06
1.15
1.14
1.19
1.21
1.17
1.12
1.12
1.11
1.06
1.02
1.05
1.12
1.08
1.09
1.12
1.09
1.05
1.1
1.1
1.06
1.02
1.05
1.06
0.99
0.99
1.04
1.09
1.04
1.04
1.04
1.04
1.17
1.22
1.21
1.27
1.26
1.15
1.14
1.12
1.09
1.14
1.17
1.15
1.11
1.12
1.06
1.05
1.09
1.07
1.06
1.1
1.12
1.08
1.08
1.09
1.08
1.02
1.08
1.13
1.15
1.09
1.12
1.12
1.07
1.03
1.03
1.06
1.03
1.04
1.08
1.13
1.08
1.02
1.05
1.07
1.04
1.05
1.09
1.1
1.07
1.08
1.1
1.1
1
0.99
0.98
1.01
0.95
0.97
1.07
1.1
1.15
1.2
1.2
1.13
1.15
1.13
1
0.88
0.84
0.85
1.01
1.14
1.3
1.32
1.3
1.33
1.25
1.19
1.19
1.12
1.11
1.09
1.09
1.1
1.1
1.05
1.09
1.12
1.1
1.05
1.1
1.14
1.09
1.05
1.07
1.08
1.08
1.02
1.02
1.11
1.13
1.09
1.15
1.16
1.11
1.15
1.19
1.18
1.14
1.15
1.14
1.08
1.08
1.1
1.07
1.02
1.05
1.06
1.05
1.03
1.12
1.15
1.11
1.13
1.15
1.12
1.06
1.05
1.02
1
1.05
1.08
1.14
1.08
1.19
1.23
1.16
1.17
1.11
1.06
1.08
1.09
1.04
1.06
1.05
1.01
0.99
1.05
1.08
1.07
1.12
1.12
1.09
1.13
1.17
1.11
1.12
1.11
1.09
1.05
1.08
1.1
1.06
1.04
1.06
1.07
1.03
0.99
1.03
1.05
1.04
1.09
1.12
1.11
1.05
1.08
1.1
1.05
1.05
1.07
1.03
1.01
1.03
1.04
1.01
1.06
1.13
1.15
1.11
1.12
1.13
1.1
1.09
1.09
1.07
1.04
1.09
1.09
1.04
1.08
1.08
1.08
1.03
1.07
1.12
1.05
1.06
1.09
1.08
1.06
1.06
1.02
0.98
1.02
1.08
1.07
1.04
1.07
1.1
1.03
1.05
1.04
1.02
1.03
1.11
1.15
1.08
1.11
1.11
1.06
1.09
1.13
1.09
1.03
1.07
1.07
1.02
1.02
1.04
1.04
1.02
1.03
1.07
1.05
1.02
1.06
1.08
1.04
1.03
1.03
1.03
1.01
1.03
1.07
1.06
1.14
1.11
1.08
1.09
1.09
1.1
1.01
1
1.03
1.05
1.06
1.09
1.13
1.1
1.11
1.11
1.1
1.07
1.08
1.08
1.04
1.07
1.04
1
1.02
1.04
1.03
1.1
1.1
1.04
1.06
1.09
1.02
1.05
1.08
1.08
1.03
1.05
1.03
1.03
1.05
1.07
1.03
1.06
1.08
1.09
1.05
1.07
1.07
1.02
1.03
1.02
0.99
0.99
1.09
1.11
1.04
1.05
1.11
1.01
0.98
1
0.94
0.89
0.88
0.96
1.33
1.3
1.4
1.34
1.31
1.28
1.17
1.14
1.09
1.03
1.03
1.07
1.06
1.02
1.06
1.09
1.09
1.05
1.12
1.13
1.08
1.09
1.09
1.02
0.97
1.02
1.15
1.16
1.28
1.26
1.18
1.19
1.2
1.14
1.12
1.12
1.05
1.09
1.09
1.04
1.06
1.11
1.05
1.06
1.08
1.06
1.02
1.09
1.17
1.13
1.15
1.21
1.18
1.17
1.19
1.15
1.09
1.1
1.12
1.09
1.04
1.03
1.04
1
1.04
1.07
1.08
1.05
1.08
1.06
1.03
0.98
0.99
0.98
0.96
1.05
1.13
1.14
1.24
1.21
1.17
1.14
1.12
1.07
1.05
1.05
1.06
1.04
0.98
1.06
1.1
1.06
1.1
1.08
1.07
1.03
1.08
1.07
1.03
1.07
1.07
1.03
0.98
0.94
0.91
0.96
1.06
1.05
1.05
1.13
1.15
1.11
1.14
1.13
1.09
1.09
1.06
1.03
0.95
0.95
1
1.02
1.05
1.15
1.13
1.08
1.1
1.11
1.08
0.99
1.01
1.06
1.05
1.11
1.16
1.12
1.09
1.11
1.07
1.03
1.07
1.08
1.05
1.07
1.08
1.05
1.01
1.01
1.01
1
1.05
1
0.99
1.03
1.15
1.15
1.14
1.2
1.17
1.13
1.06
1.1
1.1
1.05
1.03
1.02
1
0.96
0.97
1.04
1.01
1.02
1.05
1.03
1
1.04
1.06
1.03
1.02
1.02
1.02
0.99
1.06
1.06
1
0.98
0.97
1
1.02
1.11
1.1
1.05
1.07
1.05
1
0.98
1.01
1.06
1.07
1.13
1.13
1.11
1.12
1.12
1.04
1.06
1.05
1.06
1.16
1.19
1.14
1.12
1.15
1.1
1.07
1.1
1.06
1.02
1.03
1.07
1.07
1.04
1.08
1.04
0.99
1.04
1.1
1.11
1.24
1.25
1.18
1.19
1.17
1.1
1.05
1.04
1.06
0.99
1.02
1.05
1.04
1.06
1.08
1.07
1.03
1.05
1.08
1.06
1.05
1.02
0.99
1.06
1.15
1.16
1.12
1.19
1.22
1.15
1.17
1.14
1.09
1.07
1.08
1.01
1.01
1.03
1.04
1.02
1.06
1.04
1.01
1.01
1.04
1.05
1.1
1.14
1.13
1.06
1.06
1.02
0.98
0.99
1.07
1.09
1.09
1.1
1.12
1.09
1.05
1.05
1.06
1.03
1
1
1.05
1.01
1.07
1.08
1.04
1.06
1.08
1.03
0.99
1.01
1.05
1.02
1.02
0.99
0.94
0.95
0.98
1.04
1.04
1.02
1.05
1.05
1.01
1.05
1.05
1
1.03
1.03
1
1.02
1.08
1.06
1.09
1.12
1.09
1.07
1.05
1.02
1
1
0.95
0.99
1.01
1.08
1.13
1.15
1.07
1.08
1.1
1.08
1.05
1.04
1.04
1.06
1.02
1
1.02
1.1
1.22
1.22
1.26
1.26
1.2
1.13
1.15
1.13
1.07
1.07
1.03
0.97
0.98
1.04
1.12
1.11
1.08
1.1
1.01
1.02
1.04
1.04
1.02
1.05
1.09
1.08
1.05
1.07
1.09
1.04
1.04
1.05
1.04
1.09
1.1
1.06
1.01
0.98
1.01
0.98
0.98
1.04
1.16
1.11
1.12
1.13
1.11
1.03
1.03
1.07
1.08
1.06
1.03
1.04
1.04
1.06
1.05
1.02
1.05
1.03
1
0.98
0.96
0.93
0.88
0.93
1.02
1.19
1.17
1.27
1.24
1.16
1.15
1.08
1.03
0.96
0.99
1.07
1.05
1.12
1.15
1.12
1.09
1.13
1.13
1.08
1.04
1
0.98
0.97
1.05
1.17
1.17
1.14
1.21
1.19
1.15
1.15
1.1
1.06
1.07
1.11
1.06
1.05
1.07
1.1
1.07
1.08
1.09
1.08
1.04
1
1
0.97
1.02
1.12
1.15
1.13
1.14
1.13
1.1
1.08
1.08
1.06
1.05
1.09
1.04
1
1
1.02
1.03
0.98
0.98
0.99
0.96
1.1
1.13
1.09
1.11
1.14
1.13
1.06
1.09
1.06
1.03
1.06
1.06
1.01
1
1
1
0.98
1
1.05
1.04
1
1.05
0.98
0.96
0.95
1.03
1.11
1.1
1.09
1.13
1.13
1.08
1.07
1.06
1.06
1.02
1.03
1.08
1.05
1.06
1.07
1.02
1.04
1.07
1.07
1.03
1
1.02
1.05
1.01
1.06
1.07
1.05
1.06
1.07
1.05
1.03
1
0.97
1.04
1.14
1.13
1.15
1.17
1.16
1.14
1.15
1.11
1.03
1
0.97
0.96
0.97
1.07
1.17
1.14
1.13
1.09
1.09
1.03
1
1.04
1.07
1.06
1.12
1.2
1.16
1.12
1.05
1.04
0.98
0.98
0.96
0.91
0.93
1.03
1.12
1.09
1.13
1.14
1.06
1.05
1.02
1.05
1.02
1.08
1.11
1.06
1.09
1.11
1.08
1.03
1.03
1.03
1.01
1.03
1.04
1.05
1
0.99
0.92
0.92
0.94
1.02
1.05
1.16
1.22
1.16
1.14
1.13
1.09
1.08
1.08
1.06
1
1
1.01
1.02
1
1.04
1.04
1.02
1.04
1.01
0.95
0.97
1.03
1.08
1.08
1.13
1.11
1.04
1.01
0.98
0.95
0.98
1.03
1.08
1.13
1.14
1.07
1.01
0.94
0.87
0.83
0.85
0.85
0.91
1.03
0.96
0.87
0.83
0.81
0.78
0.78
0.76
0.75
0.74
0.71
0.7
0.69
0.69
0.69
0.7
0.7
0.69
0.69
0.69
0.7
0.7
0.69
0.69
0.69
0.69
0.67
0.66
0.66
0.64
0.64
0.62
0.62
0.62
0.62
0.64
0.69
0.87
1.27
1.24
1.16
1.26
1.25
1.17
1.23
1.19
1.11
1.12
1.14
1.1
1.11
1.15
1.15
1.11
1.17
1.13
1.1
1.1
1.14
1.04
0.97
0.99
1.07
1.07
1.14
1.25
1.18
1.21
1.18
1.05
1.02
1.08
1.19
1.16
1.25
1.25
1.19
1.22
1.09
1.02
1.06
1.13
1.14
1.22
1.24
1.14
1.07
1.06
0.96
0.89
0.88
0.92
1.17
1.43
1.37
1.34
1.41
1.26
1.12
0.99
0.93
0.94
0.95
0.94
0.91
1.02
1.18
1.12
1.03
1.12
1.16
1.11
1.14
1.1
1.08
1.05
1.13
1.17
1.15
1.11
1.16
1.14
1.06
1.06
1.09
1.11
1.07
1.11
1.12
1.07
1.06
1.11
1.11
1.16
1.21
1.18
1.12
1.16
1.18
1.12
1.1
1.11
1.1
1.02
1.02
1.02
1.02
0.97
1.01
1.14
1.21
1.15
1.25
1.24
1.09
1.01
1.02
1.01
0.96
0.99
1.12
1.21
1.16
1.11
1.14
1.09
1.05
1
1.04
1.06
1.06
1.03
0.99
1.01
0.98
0.93
0.94
0.99
1.09
0.98
0.97
0.94
0.89
0.94
1.24
1.22
1.27
1.24
1.14
1.1
1.11
1.08
1.06
1.1
1.12
1.02
1.04
1.11
1.16
1.13
1.17
1.12
1.07
1.04
1.11
1.12
1.05
1.12
1.16
1.11
1.06
1.09
1.06
1.02
1.01
1.08
1.14
1.04
0.96
1
1.09
1.16
1.09
1.19
1.2
1.15
1.15
1.17
1.15
0.99
1.94
1.04
1.06
1.14
1.28
1.18
1.06
1.09
1.14
1.1
1.16
1.21
1.19
1.14
1.17
1.16
1.01
0.99
1.06
1.15
1.17
1.13
1.17
1.18
1.12
1.12
1.15
1.08
1.01
1.04
1.07
1.06
1.03
1.08
1.12
1.1
1.02
1.03
1.06
0.98
1.01
1.08
1.11
1.04
1.05
1.07
1.06
1.12
1.13
1.03
0.97
1
1.11
1.1
1.05
1.1
1.15
1.12
1.1
1.09
1.1
1.17
1.13
1.05
1.12
1.2
1.11
0.95
1.93
0.88
0.88
0.91
0.93
0.87
1.02
0.91
0.87
0.86
0.84
0.82
1.55
0.77
0.76
0.75
0.74
0.72
0.73
0.71
0.72
0.78
0.93
1.1
1.14
1.14
1.3
1.31
1.17
1.18
1.21
1.15
1.09
1.11
1.14
0.99
1.11
1.33
1.3
1.28
1.27
1.27
1.22
1.25
1.24
1.13
1.07
1.08
1.19
1.16
1.24
1.21
1.09
1.08
1.12
1.19
1.22
1.27
1.19
1.15
1.17
1.13
1.13
1.15
1.18
1.16
1.06
1.1
1.12
1.13
1.19
1.2
1.15
1.11
1.11
1.13
1.1
1.09
1.08
1.03
1.1
1.16
1.02
1.06
1.17
1.24
1.25
1.34
1.28
1.16
1.17
1.11
1.05
1.05
1.09
1.05
0.98
0.98
1.09
1.03
1.02
1.03
1
0.95
0.93
1
1.09
1.16
1.24
1.24
1.29
1.29
1.23
1.23
1.13
1.08
1.12
1.15
1.06
1.04
1.05
1.2
1.25
1.17
1.18
1.21
1.14
0.97
0.96
1.03
1.02
1.16
1.34
1.26
1.24
1.21
1.16
1.07
1.09
1.11
1.06
1.04
1.08
1.08
1.01
0.99
0.94
0.97
0.97
1.14
1.24
1.2
1.13
1.17
1.13
1.03
1.03
1.06
1.05
1.03
1.03
1.07
1.05
1.09
1.14
1.11
1.06
1.02
1.01
1.03
1.09
1.18
1.18
1.22
1.27
1.19
1.1
1.05
1.06
1.05
1.02
1.13
1.17
1.11
1.17
1.19
1.08
1.04
1.06
1.1
1.03
1.06
1.1
1.1
1.09
1.14
1.11
1.06
1.06
1.09
1.07
1.02
1
1.05
1.03
0.98
0.97
1.08
1.27
1.24
1.29
1.25
1.29
1.27
1.14
1.07
1.12
1.19
1.16
1.13
1.19
1.2
1.16
1.16
1.19
1.19
1.04
0.95
1
1.12
1.21
1.35
1.35
1.27
1.27
1.24
1.14
1.08
1.08
1.03
1.03
1.06
1.08
1.06
1.08
1.13
1.1
1.12
1.1
1.06
0.98
1
1.03
1.06
1.1
1.16
1.11
1.04
1.02
1.06
1.05
1.06
1.13
1.11
1.21
1.12
1.06
1.05
1.07
1.08
1.05
1.18
1.14
1.08
1.13
1.15
1.11
1.05
1.11
1.05
1
1.02
1.12
1.15
1.09
1.1
1.09
1.11
1.09
1.04
0.99
1
1.01
1.02
0.99
1.04
1.12
1.15
1.2
1.2
1.12
1.14
1.17
1.12
1.05
1.05
1.05
1.02
0.99
1.05
1.08
1.03
1.07
1.14
1.12
1.12
1.16
1.1
1.03
1
1.04
1.06
1.04
1.09
1.12
1.06
1.07
1.06
1.09
1.18
1.15
1.07
1.08
1.08
1.04
1.13
1.16
1.1
1.1
1.11
1.12
1.1
1.12
1.08
1.01
1.06
1.08
1.07
1.02
1.05
1.09
1.06
1.07
1.12
1.07
1.01
1.05
1.13
1.1
1.05
1.06
1.1
1.1
1.07
1.12
1.14
1.07
1.08
1.11
1.09
1.06
1.1
1.08
1.05
1.05
1.04
0.98
0.97
1
1.03
1.03
0.99
1.03
1.1
1.13
1.23
1.27
1.19
1.21
1.15
1.08
1.06
1.07
1.02
0.97
1.03
1.07
1.09
1.04
1.13
1.15
1.11
1.04
1.05
1.05
1.04
0.98
1.04
1.09
1.11
1.01
0.99
0.99
0.97
0.93
0.96
1.09
1.13
1.24
1.31
1.27
1.19
1.23
1.2
1.12
1.14
1.06
0.98
0.95
0.95
1.02
1.07
1.23
1.34
1.29
1.23
1.25
1.18
1.11
1.09
1.07
1.06
1.04
1.09
1.1
1.05
1.05
1.09
1.03
0.97
1.02
1.02
1
1.05
1.07
1.14
1.19
1.14
1.06
1.1
1.12
1.07
1.04
1.06
1.06
1.03
1.09
1.13
1.09
1.04
1.09
1.13
1.11
1.04
1.04
1.09
1.09
1.02
1.07
1.09
1.08
1.03
1.05
1.07
1.11
1.07
1.14
1.12
1.04
1.04
1.04
1.04
1.04
1.09
1.1
1.04
1.05
1.13
1.12
1.05
1.02
1.04
1.04
1.1
1.11
1.06
1.08
1.11
1.09
1.04
1.07
1.11
1.07
1.04
1.13
1.17
1.07
1.04
1.01
1
1.02
1.01
1.01
1.08
1.13
1.13
1.04
1.03
1.06
1.02
1.01
1.06
1.13
1.09
1.08
1.15
1.12
1.08
1.11
1.08
1.01
1.02
1.04
1.04
0.98
1.01
1.06
1.03
1.07
1.1
1.06
1.02
1.04
1.06
1
1.03
1.07
1.08
1.01
1.03
1.05
1.05
1.04
1.03
1.07
1.04
1.04
1.09
1.06
1.05
1.12
1.13
1.05
1.06
1.08
1.05
1.04
1.08
1.09
1.05
1.07
1.1
1.11
1.05
1.05
1.06
1.08
1.07
1.02
0.98
0.95
0.89
0.9
0.86
0.85
0.89
0.87
0.9
0.94
0.91
0.86
0.87
0.86
0.87
0.85
0.83
0.82
0.81
0.81
0.84
0.92
1.06
1.13
1.11
1.15
1.17
1.11
1.02
1.04
1.04
1.04
1.08
1.18
1.1
1.02
0.98
0.97
0.89
0.97
1.18
1.15
1.05
1.07
1.04
1.08
1.26
1.24
1.15
1.1
1.15
1.05
1.02
1.08
1.15
1.1
1.06
1.11
1.21
1.2
1.14
1.17
1.12
1.06
1.06
1.07
1.07
1
1.04
1.06
1.03
1.05
1.1
1.08
1.05
1.05
1.04
1.01
0.97
1.02
1.06
1.12
1.24
1.26
1.12
1.07
1.09
1.06
1.11
1.23
1.21
1.07
1.01
1.01
0.99
0.93
0.94
0.98
1.02
1.23
1.43
1.32
1.28
1.3
1.27
1.17
1.08
1.11
1.15
1.12
1.12
1.15
1.09
1.14
1.14
1.06
1.04
1.05
1.05
1
0.98
0.99
0.99
0.95
0.99
1.18
1.19
1.08
1.02
1.07
1.06
1.06
1.17
1.14
1.04
0.98
1.02
1.07
1.02
1.06
1.15
1.12
1.03
1.08
1.13
1.1
1.07
1.12
1.17
1.11
1.07
1.09
1.12
1.07
1.02
1
1.03
1.04
1.14
1.25
1.21
1.11
1.11
1.12
1.06
1.06
1.08
1.11
1.03
1.02
1.02
1.07
1.02
0.94
0.97
0.97
0.97
1.05
1.26
1.26
1.17
1.22
1.26
1.18
1.13
1.18
1.18
1.09
1.02
1
1.09
1.11
1.06
1.04
1.1
1.14
1.07
1.02
1.07
1.13
1.06
1.08
1.13
1.11
1.03
1.06
1.03
1.01
0.95
0.98
1.04
1.09
1.06
1.17
1.18
1.12
1.05
1.02
1.05
1.01
1
1.07
1.09
1.03
1.05
1.1
1.1
1.04
1.05
1.1
1.03
1.07
1.08
1.03
1.06
1.12
1.09
1.01
1
1.01
1.04
0.99
0.96
0.98
0.92
0.91
1.05
1.17
1.07
1.11
1.24
1.21
1.15
1.12
1.11
1.03
1.04
1.08
1.13
1.05
1.06
1.13
1.11
1.11
1.11
1.13
1.08
1.01
1.07
1.11
1.08
1.09
1.12
1.1
1.09
1.08
1.04
1.05
1.13
1.13
1.08
1.06
1.08
1.06
1.07
1.18
1.18
1.11
1.11
1.18
1.14
1.05
1.13
1.16
1.13
1.06
1.13
1.15
1.09
0.98
0.98
0.97
0.92
0.87
0.87
0.86
0.86
0.89
0.88
0.85
0.87
0.89
0.85
0.87
0.92
0.98
0.98
1.07
1.13
1.14
1.07
1.04
1.07
1.03
1
1.04
1.01
0.96
1.02
1.12
1.12
1.07
1.16
1.23
1.15
1.14
1.13
1.12
1.06
1.06
1.06
1.05
0.99
1.02
1.11
1.14
1.09
1.11
1.04
0.97
0.96
1.03
1.08
1.13
1.26
1.23
1.15
1.16
1.16
1.07
1.06
1.08
1.06
1.05
1.13
1.16
1.05
1.05
1.07
1.08
1.02
1.05
1.07
1.14
1.16
1.08
1.1
1.13
1.12
1.09
1.06
1.08
1.08
1.04
1.05
1.08
1.07
1.03
1.02
1.07
1.11
1.04
0.97
0.97
0.97
0.93
0.89
0.95
1.08
1.12
1.3
1.29
1.25
1.2
1.16
1.09
1.07
1.09
1.1
1.04
1.03
1.05
1.05
1.01
1.03
1.04
1.03
1.01
1.05
1.06
1.09
1.11
1.08
1.12
1.15
1.12
1.07
1.07
1.06
1.03
0.98
0.96
1.03
1.1
1.04
1.09
1.14
1.16
1.12
1.17
1.16
1.09
1.07
1.05
1.02
0.96
0.95
1.01
1.2
1.15
1.28
1.19
1.14
1.12
1.1
1.04
1.08
1.12
1.13
1.14
1.11
1.06
1.06
1.11
1.11
1.15
1.15
1.11
1.07
1.11
1.12
1.06
1.06
1.08
1.03
1.05
1.12
1.17
1.11
1.1
1.12
1.11
1.04
1.01
1.05
1.06
1
1.01
1.06
1.14
1.07
1.08
1.11
1.11
1.01
0.96
0.97
1
0.96
0.95
1
1.04
1.02
0.95
0.98
1.01
0.98
0.96
1.05
1.08
0.99
1.05
1.09
1.09
1
0.96
0.96
1
1
0.99
1
1.07
1.05
1.15
1.24
1.19
1.06
1.03
1.07
1.07
1.05
1.21
1.24
1.16
1.13
1.19
1.2
1.11
0.99
0.96
0.99
1.08
1.05
0.99
1.03
0.96
0.96
1.07
1.37
1.23
1.24
1.23
1.21
1.14
1.04
1.06
1.12
1.13
1.05
1.13
1.18
1.16
1.07
1.08
1.1
1.09
1.05
1.04
1.09
1.14
1.06
1.03
1.07
1.11
1.08
1.02
1.09
1.12
1.05
1.03
1.06
1.06
0.98
0.94
0.93
0.88
0.88
0.92
0.88
0.88
1.03
1.05
0.95
0.93
0.3
1.38
0.89
0.96
0.85
0.8
0.8
0.79
0.76
0.74
0.71
0.3
0.47
0.73
3.75
0.32
0.44
0.75
0.74
0.71
0.72
0.71
0.7
0.69
0.69
0.67
0.68
0.67
0.71
0.77
0.89
0.92
0.91
1.07
1.16
1.19
1.15
1.24
1.24
1.18
1.19
1.29
1.19
1.08
1.06
1.16
1.18
1.14
1.24
1.26
1.18
1.16
1.16
1.17
1.13
1.24
1.28
1.24
1.15
1.18
1.12
1.13
1.14
1.15
1.1
1.03
1.06
1.09
1.03
0.99
1.09
1.11
1.06
1
1.05
1.15
1.2
1.27
1.22
1.11
1.06
1.11
1.14
1.16
1.25
1.29
1.17
1.15
1.22
1.19
1.13
1.14
1.09
1.06
1.09
1.09
1.06
1.03
1.03
1.16
1.22
1.22
1.22
1.2
1.06
0.98
0.98
1.07
1.2
1.3
1.34
1.25
1.27
1.21
1.12
1.1
1.11
1.09
1.07
1.14
1.13
1.11
1.07
1.09
1.11
1.04
0.97
0.91
0.9
0.88
0.87
0.88
0.93
1.04
1.08
1.13
1.1
0.99
0.91
0.88
0.87
0.83
0.81
0.79
0.79
0.77
0.78
0.77
0.77
0.79
0.83
0.86
0.89
0.9
0.97
1.13
1.23
1.21
1.26
1.27
1.21
1.2
1.25
1.22
1.15
1.12
1.12
1.08
1.19
1.24
1.15
1.04
1.02
1.01
1.01
1.16
1.26
1.19
1.17
1.11
1.1
1.02
1.01
1.04
1.02
1
1.05
1.12
1.09
1.15
1.11
1.03
1.02
1.06
1.04
1.04
1.01
1.07
1.22
1.18
1.2
1.21
1.14
1.03
1.02
1.08
1.13
1.27
1.26
1.23
1.24
1.17
1.11
1.1
1.14
1.09
1.11
1.1
1.1
1.04
1.05
1.09
1.1
1.04
1.04
1.06
1.04
1.09
1.12
1.08
1.03
1.09
1.1
1.01
0.99
1.04
1.04
0.97
0.98
1.04
1.11
1.07
1
1.03
1.14
1.13
1.1
1.1
1.14
1.08
0.99
0.95
0.95
0.94
0.95
1.01
0.9
0.88
0.91
0.95
0.92
1
1.15
1.19
1.21
1.27
1.24
1.15
1.17
1.16
1.09
1.1
1.11
1.09
1.04
1.09
1.17
1.18
1.15
1.2
1.2
1.15
1.21
1.18
1.16
1.16
1.09
1.09
1.1
1.1
1.07
1.13
1.12
1.1
1.07
1.12
1.15
1.07
1.11
1.15
1.09
1.05
1.11
1.17
1.2
1.19
1.23
1.26
1.28
1.36
1.28
1.29
1.21
1.16
1.16
1.12
0.99
0.92
0.92
0.94
0.97
0.93
0.95
1.04
1.08
1.07
1.08
1.11
1.11
1.02
0.98
0.98
1.01
1.05
1.01
1.01
1.07
1.04
0.97
0.96
0.99
0.96
0.96
0.98
1.01
0.98
0.98
0.98
0.98
0.98
0.99
1
0.97
0.96
0.93
0.96
0.94
0.93
0.97
1.04
1.06
1.14
1.25
1.2
1.19
1.24
1.23
1.23
1.26
1.33
1.27
1.32
1.27
1.24
1.26
1.27
1.32
1.25
1.22
1.2
1.16
1.13
1.14
1.16
1.17
1.15
1.1
1.14
1.17
1.22
1.19
1.09
1.06
1.04
1.01
0.96
0.94
0.93
0.91
0.89
0.92
0.97
1.04
1.06
1.08
1.07
1.05
1.09
1.08
1.05
1
1.01
1.02
1.01
1
1
0.98
0.94
0.92
0.89
0.86
0.86
0.87
0.86
0.84
0.84
0.84
0.86
0.88
0.87
0.89
0.91
0.94
0.94
0.92
0.93
0.94
0.95
0.94
0.94
0.94
0.92
0.91
0.91
0.9
0.9
0.87
0.88
0.88
0.88
0.87
0.89
0.92
0.93
0.95
0.93
0.91
0.91
0.92
0.96
0.99
0.99
1.01
1.11
1.15
1.08
1.13
1.13
1.08
1.16
1.11
1.13
1.09
1.03
1.01
1
0.96
0.93
0.91
0.92
0.94
0.92
0.91
0.88
0.86
0.86
0.86
0.86
0.84
0.85
0.87
0.94
0.97
0.94
0.96
0.99
0.98
0.95
0.92
0.95
0.99
1.05
1.07
1.1
1.08
1.08
1.07
1.04
1.01
1.01
1.01
1.06
1.02
1.01
1.03
1.04
1
0.94
0.9
0.91
0.91
0.92
0.9
0.91
0.92
0.92
0.93
0.92
0.9
0.93
0.92
0.91
0.94
0.96
0.98
1.02
1.04
1.07
1.04
1.07
1.1
1.08
1.12
1.1
1.07
1.06
1.01
0.98
0.96
0.99
0.97
0.95
0.96
0.94
0.89
0.87
0.87
0.86
0.86
0.84
0.85
0.85
0.86
0.88
0.87
0.9
0.93
0.95
0.96
0.97
0.97
0.97
0.98
0.96
0.94
0.95
0.95
0.96
0.98
0.99
1.06
1.08
1.07
1.05
1.04
1.02
0.99
0.94
0.96
0.98
0.95
0.96
1
1.07
1.06
1
1
0.97
0.93
0.89
0.86
0.9
0.91
0.96
1.04
1.11
1.14
1.1
1.12
1.1
1.05
1.07
1.08
1.08
1.12
1.05
1.03
1.06
1.06
0.98
0.94
0.96
0.97
1
1
0.96
0.98
0.99
1.01
0.99
1
1
0.99
0.99
0.98
1
0.98
0.95
0.97
0.99
0.96
0.93
0.92
0.91
0.93
0.91
0.91
0.89
0.9
0.92
0.9
0.9
0.92
0.95
1.03
1.1
1.23
1.24
1.26
1.28
1.21
1.22
1.22
1.26
1.21
1.21
1.21
1.12
1.01
0.98
1.03
1.14
1.09
1
1.02
1.03
0.99
1.04
1.06
1
0.95
0.93
0.91
0.9
0.89
0.91
0.96
1.05
1.15
1.11
1.2
1.24
1.17
1.16
1.1
1.1
1.11
1.06
1.02
1.04
1.02
1.01
0.99
0.94
0.95
0.95
0.94
0.91
0.91
0.92
0.94
0.92
0.94
1.02
1.04
1.02
1.01
0.97
0.99
0.99
1
1.02
1.11
1.28
1.32
1.38
1.34
1.28
1.34
1.24
1.24
1.18
1.09
0.97
0.98
0.97
0.99
1.07
1.18
1.11
1.1
1.12
1.08
0.99
0.97
0.95
0.94
0.9
0.9
0.93
0.92
0.89
0.88
0.9
0.91
0.93
0.91
0.88
0.91
0.92
0.91
0.92
0.91
0.92
0.97
0.99
0.98
0.99
1.01
1.04
1.05
1.04
1.04
1.04
0.99
0.98
0.95
0.95
0.92
0.93
0.92
0.96
1
1.01
0.98
0.97
0.98
0.96
0.92
0.91
0.91
0.93
0.96
0.98
1.03
1.15
1.12
1.06
1.09
1.09
1.16
1.21
1.15
1.16
1.13
1.12
1.25
1.28
1.28
1.25
1.18
1.17
1.18
1.07
0.96
0.94
0.94
0.92
0.99
1.15
1.15
1.11
1
0.99
1
0.98
0.95
0.93
0.94
0.92
0.94
0.92
0.93
0.97
1
0.99
0.97
1.01
1.03
1.01
1.01
1
1
0.97
0.96
0.96
0.95
0.92
0.92
0.95
1
1.07
1.02
0.97
0.93
0.93
0.96
1.04
1.15
1.14
1.14
1.06
1.08
1.09
1.02
1.01
0.99
0.98
0.96
0.97
0.98
0.97
1
1.09
1.14
1.19
1.2
1.24
1.24
1.2
1.15
1.15
1.16
1.1
0.97
0.99
1.03
1.07
0.99
0.99
1.01
1.01
0.98
0.94
0.9
0.87
0.85
0.83
0.82
0.83
0.82
0.84
0.87
0.99
1.02
1.04
1.09
1.07
1.02
0.99
0.97
0.95
0.94
0.99
1.06
1.13
1.15
1.13
1.11
0.97
0.91
0.91
0.93
1.07
1.1
1.01
0.97
0.93
0.91
0.93
1.01
1.1
1.08
1.1
1.09
1.04
1.02
1.06
1.06
1.05
1.04
1.06
1.1
1.09
1.05
1.09
1.08
1.03
1
1.05
1.05
1.02
0.99
0.99
1.04
1.03
1.01
0.95
0.93
0.93
0.91
0.9
0.93
0.97
1.01
1
0.96
0.93
0.98
0.98
0.99
0.92
0.9
0.9
0.9
0.91
0.91
0.92
0.91
0.92
0.89
0.88
0.91
0.93
0.91
0.9
0.89
0.91
0.92
0.91
0.9
0.93
0.99
1.03
1.01
1.03
1.05
1.06
1.03
1.06
1.07
1.18
1.18
1.11
1.1
1.08
1.03
0.97
0.96
1
1.04
0.95
0.97
1.03
1.1
1.07
1.03
1.05
1.07
1.07
1.07
1
0.97
0.99
1.01
1.04
1.03
1.12
1.17
1.16
1.2
1.15
1.12
1.11
1.06
0.99
0.97
0.97
0.99
1.01
1.07
1.08
1.05
0.97
0.96
0.96
0.98
1
0.96
0.94
0.96
1.03
1.11
1.14
1.24
1.3
1.28
1.27
1.18
1.29
1.28
1.24
1.3
1.23
1.29
1.19
1.17
1.23
1.14
1.13
1.15
1.14
1.13
1.09
0.99
0.93
0.89
0.88
0.87
0.91
1.23
1.19
1.11
1.04
1.06
1.08
1.06
1.05
1.04
1.03
0.98
0.96
0.98
1.03
1.09
1.16
1.25
1.23
1.24
1.2
1.12
1.06
1.01
0.98
0.9
0.9
1.06
1.2
1.11
1.14
1.17
1.08
1.01
0.98
0.96
0.95
0.92
0.89
0.89
0.9
0.92
0.97
0.98
1
1.02
1.03
1
0.95
0.95
0.96
1
1.05
0.96
0.91
0.89
0.89
0.87
0.86
0.85
0.86
0.91
1.03
1.09
1.14
1.12
1.06
1.07
1.05
1.01
0.96
0.98
0.99
1
1.04
1.06
1.11
1.13
1.13
1.13
1.11
1.12
1.16
1.12
1.06
1
1.03
1.03
1.02
1.01
1.04
1.02
0.99
1.05
1.04
0.98
0.94
0.93
0.92
0.91
0.87
0.88
0.9
0.92
0.94
0.92
0.93
0.96
0.97
0.96
0.95
0.93
0.93
0.91
0.92
0.94
0.96
0.94
0.9
0.88
0.87
0.87
0.92
0.99
1.01
1.04
1.11
1.19
1.17
1.11
1.09
1.06
1.06
1.02
1.02
1.01
1.01
0.99
0.98
0.98
0.99
0.95
0.93
0.93
0.93
0.98
0.99
0.98
0.99
1.01
1.05
1.07
1.02
1.01
1.01
1.01
1.03
1.03
1.01
1.05
1.15
1.16
1.2
1.27
1.26
1.18
1.18
1.11
1.11
1.18
1.15
1.1
1.1
1.06
1
1.01
0.74
0.79
0.57
1.18
1.01
1.01
1.05
1.03
1.05
1.07
1.07
1.1
1.1
1.09
1.14
1.12
1.06
1.1
1.11
1.1
1.07
1.05
1.04
1.04
1
0.97
0.99
1
0.98
0.92
0.91
0.9
0.89
0.91
0.91
0.91
0.93
0.95
0.95
0.92
0.95
0.97
0.96
0.99
0.97
0.97
0.98
0.93
0.9
0.93
0.95
0.99
0.96
1.01
1.07
1.03
0.99
1.01
0.99
1
0.98
0.97
0.95
0.96
0.98
1.11
1.19
1.26
1.18
1.15
1.08
1.08
1.1
1.09
1.13
1.1
1.06
1.1
1.07
1.03
1
1.01
1.04
1
0.97
0.98
1.01
1.01
0.97
0.98
1.02
1.05
1.15
1.17
1.16
1.15
1.12
1.2
1.1
1.07
1.01
0.95
0.9
0.89
0.91
0.96
1.14
1.16
1.09
1.03
1.01
1
0.94
0.92
0.91
0.89
0.85
0.84
0.85
0.85
0.86
0.92
1.03
1.13
1.1
1.03
1.02
1.01
0.99
0.98
1.03
1.12
1.15
1.13
1.09
1.09
1.08
1.03
0.99
1
0.98
0.98
1.09
1.08
1.04
0.99
0.98
0.98
0.99
0.95
0.92
0.9
0.89
0.85
0.83
0.83
0.81
0.82
0.89
1.1
1.24
1.24
1.18
1.11
1.09
1.1
1.07
1.05
1.01
1.03
1.04
1.01
1
0.95
0.93
0.95
0.96
0.98
0.99
1.04
1.05
0.99
0.94
0.92
0.93
0.93
0.99
1.05
1.11
1.19
1.08
1.05
1.05
1.06
1.04
0.98
0.97
1
1.04
1.07
1.07
1.09
1.12
1.1
1.08
1.08
1.03
1.02
1.05
1.04
1.03
1.03
1.11
1.09
1.07
1.08
1.08
1.02
1.01
0.98
1
0.96
0.97
0.97
0.99
1.03
1.03
1.03
1.05
1.04
0.97
0.94
0.96
0.96
0.94
0.92
0.89
0.91
0.93
0.95
0.94
0.91
0.93
0.91
0.9
0.9
0.87
0.9
0.91
0.92
0.94
0.91
0.92
0.96
1.03
1.02
1.08
1.1
1.04
1.01
1
1
1
1.02
1.07
1.18
1.16
1.16
1.19
1.17
1.18
1.23
1.24
1.54
1.23
1.1
1.09
1.08
1.05
1.15
1.22
1.14
1.03
1.03
1
1.02
0.98
0.96
1
0.99
0.99
0.93
0.94
0.98
1
1.04
1.04
1.01
1.05
1.05
1.07
1.1
1.01
0.99
0.99
1.03
0.99
1.02
1.06
1.12
1.1
1.03
1.04
1.04
1.06
1.07
1.08
1.08
1.04
0.97
0.93
0.95
1.08
1.07
1.06
1.08
1.1
1.05
1.07
1.03
0.98
0.96
0.99
0.99
0.97
0.98
1.05
1.12
1.18
1.23
1.19
1.19
1.16
1.19
1.17
1.12
1.1
1.15
1.12
1.09
1.07
1.06
0.99
0.96
0.97
0.97
0.96
0.9
0.92
0.9
0.93
1.03
1.16
1.18
1.15
1.09
1.08
1.07
1.08
1.05
1.04
1.01
1.05
1.11
1.1
1.07
1.12
1.13
1.09
1.09
1.12
1.14
1.13
1.06
1.05
1.07
1.06
1.08
0.99
0.94
0.91
0.9
0.93
0.98
1
1.09
1.11
1.06
0.98
0.94
0.95
0.96
0.98
0.96
0.94
0.97
0.99
0.99
0.99
1.01
1
1.03
1.01
0.98
0.92
0.91
0.92
0.94
0.95
1.04
1.09
1.05
0.99
0.99
0.98
0.99
0.95
0.91
0.92
0.9
0.89
0.88
0.87
0.91
0.97
1
1.04
1.11
1.07
1.04
1.07
1.05
1.02
0.98
1.02
1.02
1
0.95
0.95
0.98
1.01
0.99
1
1.04
1.03
1.04
1.03
0.99
0.97
1
0.99
0.98
0.98
1.01
1.04
1.04
0.98
0.95
0.97
0.99
0.98
0.96
0.99
0.98
0.98
0.98
1.01
0.99
0.96
0.93
0.95
0.95
0.94
0.91
0.94
0.95
0.93
0.89
0.89
0.92
0.99
1.08
1.06
1.06
1.1
1.1
1.09
1.03
0.98
1
1.04
0.97
0.96
0.99
1.04
1.06
1.1
1.14
1.11
1.05
1.05
1.04
1.02
0.98
0.94
0.97
1
1.04
0.98
0.97
1.01
1.06
1.05
1
0.96
0.98
0.97
1.01
0.95
0.95
0.96
1.02
1.08
1.05
1.08
1.2
1.21
1.1
1.04
1.05
1.04
1.03
0.99
0.93
0.94
0.99
1.07
1.09
1.07
1.12
1.17
1.14
1.08
1.03
1.01
1.04
1.1
1.11
1.08
1.06
1.1
1.08
1.03
1.04
1.04
1
1.01
1.03
1.02
0.97
0.97
0.98
1
0.98
0.96
0.97
0.99
1
1.02
1.09
1.17
1.13
1.07
1.09
1.14
1.11
1.03
1.04
1.1
1.13
1.08
1.06
1.12
1.15
1.09
1.05
1.1
1.12
1.09
1.04
1.07
1.09
1.06
1.05
1.11
1.12
1.1
1.03
0.98
1
1.06
1.03
1.01
1.04
1.04
0.99
0.99
1.02
1.03
0.98
0.99
1.01
1.04
1.06
1.01
1.01
1.05
1.06
1.05
0.99
0.97
1.02
1.12
1.1
1.14
1.18
1.13
1.1
1.07
1.04
1.01
1.01
1.06
1.07
1.05
1.06
1.05
1.07
1.06
1.09
1.1
1.06
1.02
1.02
1.04
1
1.04
1.08
1.04
0.99
1.02
1
1.01
1.08
1.05
1.04
1.07
1.06
1.01
0.99
1.03
1.07
1.03
0.99
1
1.01
0.99
0.94
0.99
1.05
1.04
2.04
1.13
1.16
1.07
1.02
1.04
1.04
1.04
0.97
0.97
1.02
1.03
1.02
0.98
0.98
1.01
1.03
0.97
0.96
0.97
0.99
0.99
0.95
0.93
0.95
1.04
1.09
1.07
1.21
1.24
1.19
1.11
1.1
1.12
1.08
1.01
1.06
1.08
1.08
1.06
1.04
1.06
1.05
1.01
1.06
1.08
1.07
1.01
1.04
1.09
1.07
1.02
1.05
1.07
1.07
1
0.99
1.01
1.02
1.01
0.98
0.96
1.01
1.06
1.08
1.08
1.14
1.17
1.1
1.08
1.09
1.04
1.06
1.12
1.1
1.02
1.02
1.04
1.07
1.01
1.02
1.05
1.07
0.99
1.01
1.03
0.99
0.99
1.08
1.14
1.05
1.03
1.1
1.11
1.04
1
1.01
1.05
1.03
0.97
1
1.06
1.09
1.01
1.03
1.03
1.03
1.02
0.96
0.97
1
1.03
0.99
0.96
1
1.05
1.08
1.03
0.97
0.96
0.98
1.02
1
0.97
1
1.03
1.08
1.04
1.05
1.09
1.08
1.01
1
1.01
1.02
0.98
0.98
1.01
1.08
1.04
1.06
1.17
1.15
1.06
1.03
1.05
1.05
1.03
0.97
0.99
1.05
1.09
1.04
1.04
1.05
1.08
1.07
0.99
0.98
1.01
1.06
1.04
1
1.01
1.07
1.1
1.06
1.02
1.04
1.06
1.05
1
1.02
1.08
1.09
1.04
1.08
1.13
1.11
1.03
1.02
1.03
1.05
1.02
0.98
1.04
1.1
1.05
1.01
1.02
1.03
1.01
0.98
1.03
1.1
1.11
1.04
1.03
1.04
1.05
0.99
0.99
1.05
1.03
0.98
1
1.04
1.05
0.99
0.99
1
1.03
0.98
0.99
1.05
1.11
1.12
1.08
1.13
1.13
1.07
1.04
1.05
1.04
0.99
0.96
1
1.03
0.99
0.99
1.08
1.12
1.05
1.06
1.11
1.1
1.02
1
1
1.04
0.99
0.97
1.03
1.09
1.04
1.05
1.11
1.08
0.99
0.99
1.02
0.99
0.93
0.91
0.94
0.96
0.95
0.98
1.12
1.15
2.18
1.14
1.13
1.04
1
0.99
1.01
1.01
0.97
0.95
0.98
1.04
0.97
0.99
1.06
1.15
1.17
1.08
1.11
1.13
1.08
1.04
1.07
1.09
1.05
1.02
1.09
1.1
1.06
1.02
1.07
1.07
1.04
1.11
1.13
1.07
1.05
1.06
1.09
1.02
1.03
1.06
1.04
1.02
1.06
1.07
1.07
1.01
1.04
1.08
1.07
1.02
1.01
1.06
1.05
1.04
1.08
1.08
1.04
0.99
1.03
1.04
1.02
0.96
0.96
0.97
1
0.97
0.98
1.05
1.12
1.06
1.06
1.11
1.07
1
0.99
1.01
1.02
0.98
0.99
1.06
1.1
1.09
1.02
1.03
1.06
1.05
0.96
0.95
0.99
1.04
1
1
1.09
1.13
1.06
1.03
1.06
1.08
1.07
1.02
1.06
1.11
1.09
1
1.02
1.1
1.13
1.06
1.08
1.09
1.1
1
0.98
1.01
1.05
1.01
1.02
1.13
1.19
1.1
1.07
1.11
1.12
1.08
1
1
1.03
1.03
1.04
0.99
1.05
1.12
1.13
1.03
1.05
1.05
1.02
0.97
0.99
1.02
1.03
1.01
1.03
1.12
1.16
1.1
1.11
1.14
1.14
1.09
1
0.99
1.05
1.07
1.03
1.01
1.08
1.11
1.07
1.01
1.04
1.07
1.07
0.99
1.01
1.05
1.13
1.03
1.07
1.16
1.14
1.11
1
0.98
0.99
0.98
0.91
0.91
0.95
0.98
2.05
1.18
1.15
1.05
1.05
1.03
0.97
0.97
0.98
1.03
1.01
1.01
1.1
1.12
2.05
1.07
1.06
0.99
1
1.02
1.02
0.96
0.97
0.98
1.03
1.03
0.99
1.04
1.09
1.1
1.05
1.11
1.13
1.06
1.09
1.11
1.08
1
1.03
1.05
1.06
1.04
0.99
1.01
1.05
1.04
0.99
1
1.02
1.06
0.99
0.97
0.99
1.07
1.07
1.01
1.09
1.12
1.08
1.01
1.05
1.12
1.07
1.01
1.05
1.08
1.09
1.02
1.09
1.15
1.14
1.07
1.09
1.13
1.1
1.07
1.12
1.12
1.05
1
1.05
1.08
1.04
0.98
1.01
1.09
1.06
1.03
1.07
1.11
1.04
1.01
1.07
1.07
1.02
0.97
1
1.08
1.05
1.01
1.02
1.06
1.01
0.98
1.02
1.05
1.03
0.97
0.97
1
1.07
1.05
1.09
1.18
1.21
1.11
1.07
1.15
1.14
1.06
0.97
0.98
1
1.03
0.98
0.97
1.03
1.09
1.11
1
1.02
1.07
1.08
1.02
1.04
1.09
1.06
1.02
1.06
1.07
1.02
0.99
1.01
1.05
1.04
1.01
1.06
1.08
1.06
1
1.03
1.05
1
1.02
1.08
1.09
1.03
1.06
1.08
1.04
1.02
1.07
1.12
1.09
1.02
1.05
1.08
1.04
1
1.02
1.05
1.03
1.04
1.15
1.12
1.14
1.16
1.07
1.03
1.04
1.05
1.01
0.95
0.95
0.99
1
0.96
1.03
1.12
1.12
1.06
1.1
1.08
1.01
0.98
0.99
1
0.96
0.9
0.86
0.82
0.81
0.79
0.78
0.78
0.79
0.82
0.88
0.89
0.85
0.85
0.84
0.83
0.82
0.81
0.8
0.79
0.74
0.76
0.75
0.73
0.71
0.71
0.71
0.7
0.68
0.67
0.67
0.67
0.68
0.69
0.74
0.74
0.8
0.96
1.11
1.07
1
1.01
1.1
1.1
1.09
1.19
1.2
1.14
1
0.96
1.05
1.14
1.09
1.19
1.32
1.28
1.18
1.2
1.26
1.18
1.09
1.05
1.08
1.09
1.08
1.15
1.19
1.15
1.07
1.04
1.02
1.05
1.04
1.17
1.18
1.11
1.2
1.18
1.12
1.07
1.07
1.09
1.02
0.95
1.01
1.19
1.25
1.21
1.28
1.23
1.17
1.12
1.16
1.11
1.05
1.05
1.08
1.16
1.09
1.15
1.19
1.11
1.07
1.05
1.03
1.01
1.1
1.24
1.25
1.19
1.19
1.18
1.13
1.08
1.08
1.08
1.04
1.02
1.06
1.12
1.07
1.07
1.09
1.1
1.04
1
1.05
1.1
1.1
1.06
1.17
1.22
1.14
1.19
1.19
1.12
1.06
1.04
1.05
1.03
1.05
1.16
1.14
1.07
1.06
1.02
0.98
1.01
1.04
1.07
1.07
1.07
1.1
1.04
1.09
1.14
1.1
1.04
1.02
1.05
1.1
1.04
1.06
1.09
1.12
1.05
1.04
1.09
1.14
1.09
1.06
1.09
1.13
1.12
1.02
1.04
1.07
1.04
1.03
0.98
1.02
1.07
1.08
1.06
1.11
1.18
1.18
1.1
1.14
1.17
1.15
1.06
1.07
1.07
1.08
1.06
1.03
1.01
1.05
1.08
1.08
1.02
1.01
1.05
1.07
1.05
1.07
1.12
1.13
1.05
1.07
1.1
1.05
1.01
1.07
1.09
1.04
0.96
1.01
1.04
1.02
1
1.04
1.06
1.01
1.01
1.05
1.06
1.01
1.1
1.09
1.05
1.06
1.09
1.08
