0.84
1.09
1.08
1.17
1.09
0.43
1.13
0.57
1.21
1.13
1.1
1.26
1.08
1.15
1.21
1.09
1.04
1.24
1.15
1.13
1.17
1.15
1.09
0.88
0.29
1.21
1.04
2.27
0.84
1.23
1.33
1.03
1.1
1.29
0.98
1.18
0.95
1
0.94
0.64
0.53
1.27
0.99
0.66
0.54
0.33
0.93
1.05
1.19
1.17
1.12
1.14
1.06
1.02
1.18
1.06
1.17
1.21
1.19
1.18
1.07
0.34
0.77
1.23
1.08
1.1
1.5
1.17
1.06
1.47
1.27
0.57
0.53
1.49
1.53
1.34
1.2
1.09
1.36
1.55
1.14
1.09
1.17
1.16
1.18
1.06
1.1
1.24
1.24
1.13
1.03
1.08
1.26
1.19
1.11
1.15
1.57
1.42
1.22
1.09
1.18
1.45
1.35
1.26
1.17
1.29
1.28
1.25
1.19
1.11
1.27
1.36
1.23
1.12
1.13
1.33
1
1.12
1.37
1.1
1.47
0.93
0.95
1
0.95
0.96
1.18
1.06
1.02
0.9
1.01
1.01
1.01
1.09
1.04
0.95
1.01
1.12
1.07
1.03
1
1.14
1.12
1.05
1.11
1.26
1.09
0.98
1.25
1.07
1.01
1.06
1.06
0.27
0.7
1.13
0.96
0.91
0.79
0.38
0.65
0.87
0.94
0.98
0.89
1.11
1.04
1.1
1.08
0.98
1
1.14
1.04
0.95
0.41
0.21
0.45
1.07
1.16
0.88
2.3
1.95
0.48
0.33
0.21
0.34
0.91
0.21
0.48
2.02
0.44
0.67
0.65
0.43
0.86
6.03
0.23
2.21
2.7
0.47
0.23
0.32
2.26
0.28
0.31
1.07
0.99
1.06
1.12
1.12
1.14
1.14
1.05
0.98
1.14
1.3
1.23
1.26
1.09
2.69
1.24
1.46
1.13
1.3
6.49
0.92
0.51
0.61
0.37
1.92
1.95
0.33
0.53
0.22
0.26
0.33
0.43
1.69
0.5
0.75
0.33
0.36
0.33
0.42
0.47
1.04
3.28
0.29
0.35
0.68
0.99
0.52
0.74
2.11
0.36
1.56
2.36
0.95
0.23
0.28
0.67
0.51
0.36
1.3
1.94
0.51
0.57
0.35
0.84
0.34
1.66
0.47
0.38
0.41
0.27
1.86
1.28
0.34
0.35
0.78
0.52
1.04
1.07
1.11
0.35
0.66
1.04
0.95
0.99
1.06
1.03
1.12
1.06
1.01
1.07
1.1
1.07
1.01
1.05
1.1
1.06
1
0.96
1.02
1.08
1.01
1.05
1.1
1.03
1.01
1.09
1.09
1.01
1.07
1.07
1
0.95
0.91
1.04
1.41
1.15
1.11
1.08
0.97
0.89
0.92
1.05
1.1
1.12
1.11
1.17
1.15
1.13
1.14
1.08
1.04
1.07
1.13
1.15
1.11
1.13
1.09
1.08
1.16
1.15
1.12
1.1
1.07
1.04
1.03
1.02
1.04
1.04
1.02
1.1
1.1
1.09
1.04
1
0.99
1.04
1.03
1.01
1.03
0.98
0.99
1.04
1.04
1.02
0.99
0.99
1.05
1.03
1.01
1.02
0.98
0.99
1.03
1.03
1.01
0.99
1.06
1.05
1.04
0.99
1
1.02
1.02
1
1.03
1.03
0.99
0.99
1.03
1.05
1.04
1.02
0.91
0.86
0.95
1.52
1.19
0.98
0.91
0.97
1.18
1.1
1.02
0.93
0.98
1.32
1.15
1.1
1.06
1.03
1
0.91
0.91
0.88
0.85
1.05
1.2
1.11
1.09
1.11
1.1
1.08
1.07
1.08
1.07
1.08
1.08
1.09
1.07
1.09
1.1
1.07
1.12
1.13
1.13
1.13
1.11
1.1
1.11
1.11
1.07
1.05
1.08
1.05
1.08
1.11
1.13
1.15
1.1
1.07
1.09
1.12
1
1.07
1.14
1.1
1.03
1.02
0.94
0.92
1.01
1.17
1.11
1.1
1.12
1.04
0.98
1.01
1.14
1.09
1.09
1.1
1.07
1.07
1.07
1.02
1.05
1.05
1.05
1
1.03
1.02
0.98
1.03
0.96
0.94
1.02
1.03
1.04
1.05
0.96
0.93
0.98
1.03
1.06
0.97
0.98
1.01
1.03
1.05
0.96
1
1
1.03
0.93
0.96
0.98
1.02
1
0.99
0.94
0.94
0.96
0.94
0.99
0.98
0.93
0.92
0.87
0.84
0.91
0.95
0.96
0.97
0.97
0.99
0.92
0.92
0.95
0.96
0.98
0.99
0.98
2.01
0.24
0.66
1.72
0.48
0.37
0.43
0.35
1.15
0.96
0.99
1.02
1.02
1.01
0.92
1.02
0.97
0.96
1
1.03
0.99
1.05
1.11
1.1
0.99
1.02
1.09
1.03
1.04
0.99
1.04
1.07
1.02
1.08
1.07
1.06
1.12
1.09
1.07
0.99
1.04
1.01
1.06
1.08
1.08
1.05
1.03
1.07
1.07
1.03
1
1.07
1.09
1.04
1.04
1.11
1.09
1.07
1.08
1.08
1.01
1.07
1.06
1.12
1.11
0.97
0.96
1.09
1.07
1.01
1.02
1.08
1.07
1.01
0.4
0.64
2.59
1.14
3.36
0.78
1.53
0.77
0.6
0.96
0.77
0.74
0.57
1.57
0.73
1.37
0.74
0.32
0.47
0.84
0.79
0.82
0.85
0.88
0.89
0.87
0.82
0.83
0.82
0.86
0.96
1.03
1.01
1.04
1.03
1.03
1.04
1.04
1
0.96
0.94
1
1.03
0.99
0.97
0.99
0.93
0.85
0.84
0.87
0.93
0.93
0.93
0.93
0.95
0.95
0.96
0.94
0.91
0.91
1.01
1
0.99
0.95
0.95
0.98
1.01
1.01
0.99
1
0.96
0.95
1.01
1.02
1
0.96
0.94
0.93
0.98
0.98
0.96
0.93
0.97
1
0.98
0.97
0.94
0.95
0.99
0.99
0.96
0.93
0.96
0.97
0.98
0.96
0.94
0.98
1.01
1
0.98
0.96
1
1
1
0.96
0.98
1
1
0.96
0.96
0.99
1
0.97
0.93
0.98
0.97
0.98
0.94
0.95
1
1.01
0.98
0.96
0.99
1
1.01
0.94
0.93
0.95
0.95
0.94
0.91
0.9
0.94
0.96
0.94
0.91
0.92
0.94
0.94
0.89
0.88
0.92
0.92
0.92
0.89
0.92
0.94
0.94
0.9
0.89
0.93
0.94
0.92
0.9
0.92
0.93
0.94
0.92
0.88
0.92
0.93
0.94
0.92
0.9
0.92
0.96
0.95
0.93
0.94
0.96
0.95
0.94
0.92
0.92
0.93
0.93
0.9
0.9
0.94
0.97
0.98
0.96
0.95
1.01
1
0.99
0.96
0.91
0.93
0.95
0.96
0.96
0.94
0.98
1
1
0.98
0.95
0.97
0.97
0.96
0.94
0.92
0.96
0.98
0.96
0.93
0.97
0.98
0.94
0.91
0.94
0.94
0.93
0.89
0.92
0.94
0.93
0.91
0.96
0.95
0.91
0.91
0.96
0.96
0.91
0.91
0.94
0.96
0.92
0.91
0.94
0.97
0.94
0.92
0.94
0.95
0.93
0.9
0.93
0.96
0.93
0.9
0.93
0.95
0.94
0.91
0.93
0.95
0.93
0.91
0.93
0.96
0.95
0.93
0.95
0.95
0.94
0.9
0.94
0.94
0.94
0.91
0.94
0.96
0.96
0.91
0.92
0.95
0.95
0.93
0.93
0.97
0.97
0.92
0.93
0.93
0.94
0.9
0.91
0.96
0.96
0.93
0.95
0.96
0.93
0.9
0.92
0.93
0.94
0.89
0.91
0.93
0.93
0.89
0.91
0.91
0.91
0.91
0.89
0.91
0.95
0.95
0.91
0.92
0.95
0.98
0.92
0.92
0.92
0.92
0.92
0.9
0.92
0.93
0.94
0.9
0.89
0.93
0.93
0.9
0.9
0.92
0.93
0.9
0.9
0.94
0.93
0.91
0.93
0.96
0.92
0.85
0.95
0.92
0.9
0.87
0.9
0.94
0.95
0.92
0.88
0.95
0.96
0.96
0.93
0.88
0.89
0.92
0.93
0.93
0.9
0.9
0.91
0.9
0.87
0.92
0.96
0.99
0.93
0.92
0.94
0.92
0.89
0.9
0.92
0.9
0.86
0.91
0.92
0.91
0.89
0.9
0.93
0.9
0.87
0.9
0.94
0.95
0.91
0.94
0.96
0.92
0.89
0.94
0.94
0.93
0.86
0.96
0.96
0.92
0.89
0.93
0.95
0.91
0.88
0.96
0.93
0.91
0.89
0.95
0.96
0.94
0.91
0.92
0.96
0.92
0.87
0.92
0.91
0.95
0.9
0.9
0.95
0.98
0.94
0.9
0.92
0.95
0.94
0.9
0.9
0.91
0.91
0.87
0.89
0.94
0.97
0.96
0.92
0.9
0.92
0.93
0.92
0.87
0.9
0.91
0.9
0.88
0.93
0.93
0.93
0.88
0.91
0.91
0.91
0.86
0.9
0.9
0.89
0.86
0.89
0.9
0.91
0.87
0.91
0.92
0.92
0.89
0.88
0.9
0.93
0.87
0.88
0.9
0.89
0.88
0.84
0.89
0.91
0.99
1.06
1
1.11
1.06
0.95
0.91
0.95
0.99
1
0.97
0.96
0.94
0.86
0.79
0.82
0.83
0.78
0.84
0.91
0.89
0.85
0.85
0.92
0.91
0.85
0.85
0.9
0.91
0.87
0.84
0.89
0.89
0.9
0.84
0.88
0.93
0.91
0.85
0.9
0.91
0.91
0.85
0.86
0.92
0.9
0.86
0.87
0.91
0.91
0.87
0.92
0.93
0.91
0.85
0.92
0.91
0.9
0.84
0.93
0.93
0.91
0.86
0.92
0.92
0.91
0.87
0.91
0.93
0.92
0.87
0.93
0.92
0.91
0.87
0.91
0.92
0.93
0.89
0.86
0.93
0.93
0.91
0.85
0.91
0.92
0.9
0.86
0.93
0.94
0.93
0.87
0.9
0.91
0.92
0.94
0.94
0.9
0.89
0.95
0.95
0.93
0.91
0.93
0.93
0.93
0.89
0.91
0.94
0.99
0.95
0.92
0.93
0.94
0.95
0.91
0.9
0.92
0.93
0.9
0.9
0.94
0.97
0.97
0.9
0.91
0.94
0.92
0.83
0.9
0.91
0.98
0.97
0.93
0.95
1.01
0.93
0.84
0.89
0.93
0.97
0.95
0.98
1
0.98
0.94
0.9
0.92
0.93
0.92
0.91
0.88
0.9
0.92
0.95
0.97
0.92
0.93
0.95
0.96
0.91
0.86
0.9
0.9
0.92
0.9
0.94
0.99
0.97
0.91
0.92
0.91
0.93
0.88
0.89
0.91
0.94
0.94
0.89
0.9
0.92
0.92
0.9
0.86
0.89
0.91
0.9
0.88
0.9
0.93
0.93
0.89
0.89
0.91
0.95
0.92
0.9
0.89
0.73
0.99
0.84
0.9
0.92
0.81
0.77
0.76
0.77
0.88
0.98
0.94
0.9
0.81
0.86
0.91
0.91
0.91
0.87
0.88
0.99
0.95
0.94
0.93
0.88
0.87
0.92
0.95
0.95
0.82
0.82
0.87
0.89
0.23
0.61
0.8
0.79
0.84
0.91
0.92
0.95
0.92
0.9
0.92
0.95
0.94
0.89
0.87
0.93
0.93
0.93
0.87
0.9
0.92
0.9
0.92
0.89
0.86
0.9
0.9
0.92
0.93
0.92
0.9
0.85
0.91
0.91
0.91
0.9
0.88
0.92
0.92
0.92
0.91
0.86
0.85
0.89
0.9
0.91
0.91
0.89
0.88
0.9
0.92
0.89
0.88
0.9
0.93
0.9
0.86
0.9
0.9
0.91
0.88
0.88
0.9
0.91
0.9
0.85
0.89
0.9
0.9
0.89
0.82
0.88
0.88
0.89
0.89
0.89
0.9
0.92
0.92
0.93
0.87
0.83
0.89
0.87
0.87
0.82
0.87
0.89
0.9
0.9
0.86
0.87
0.89
0.89
0.86
0.82
0.82
0.89
0.88
0.9
0.89
0.87
0.93
0.95
0.93
0.86
0.91
0.93
0.93
0.9
0.88
0.91
0.93
0.91
0.88
0.85
0.87
0.91
0.96
0.97
0.95
0.9
0.89
0.91
0.93
0.91
0.88
0.86
0.92
0.92
0.92
0.89
0.87
0.91
0.92
0.94
0.9
0.92
0.93
0.93
0.92
0.9
0.9
0.92
0.91
0.91
0.91
0.91
0.91
0.91
0.84
0.86
0.88
0.87
0.88
0.82
0.85
0.89
0.91
0.92
0.89
0.9
0.91
0.93
0.89
0.86
0.9
0.9
0.87
0.84
0.9
0.91
0.88
0.87
0.88
0.9
0.89
0.82
0.83
0.84
0.84
0.86
0.8
0.8
0.86
0.89
0.88
0.85
0.89
0.95
1.01
0.95
0.9
0.92
0.92
0.93
0.92
0.87
0.89
0.91
0.94
0.95
0.91
0.94
0.97
0.96
0.93
0.9
0.91
0.93
0.95
0.9
0.89
0.91
0.92
0.9
0.87
0.83
0.91
0.89
0.83
0.83
0.88
0.9
0.89
0.82
0.85
0.88
0.87
0.84
0.82
0.85
0.86
0.86
0.85
0.81
0.89
0.9
0.9
0.89
0.84
0.89
0.87
0.86
0.8
0.8
0.88
0.86
0.82
0.84
0.84
0.87
0.88
0.85
0.79
0.87
0.9
0.92
0.9
0.85
0.88
0.92
0.93
0.92
0.86
0.91
0.92
0.93
0.88
0.83
0.9
0.91
0.92
0.91
0.84
0.87
0.89
0.9
0.9
0.9
0.89
0.91
0.93
0.93
0.89
0.84
0.89
0.88
0.91
0.91
0.89
0.87
0.91
0.95
0.9
0.87
0.83
0.91
0.87
0.88
0.82
0.87
0.87
0.89
0.88
0.83
0.89
0.89
0.89
0.87
0.83
0.85
0.89
0.91
0.92
0.9
0.81
0.88
0.87
0.91
0.92
0.88
0.86
0.9
0.93
0.89
0.84
0.89
0.95
0.99
0.97
0.92
0.86
0.94
0.96
0.96
0.94
0.88
0.87
0.92
1
0.97
0.97
0.93
0.93
0.95
0.94
0.89
0.85
0.91
0.9
0.93
0.92
0.89
0.87
0.9
0.88
0.89
0.82
0.83
0.9
0.89
0.9
0.87
0.84
0.93
0.96
0.99
0.92
0.94
0.98
0.97
0.92
0.91
0.91
0.92
0.94
0.92
0.96
0.99
0.95
0.93
0.89
0.91
0.97
1.01
0.95
0.91
0.94
0.96
0.95
0.91
0.93
0.96
0.95
0.95
0.92
0.89
0.91
0.95
0.91
0.91
0.9
0.91
0.86
0.85
0.9
0.92
0.86
0.8
0.86
0.85
0.81
0.84
0.87
0.81
0.86
0.99
0.98
0.95
0.9
0.81
0.85
0.82
0.85
0.92
0.91
0.79
0.77
0.79
0.85
0.91
0.84
0.82
0.85
0.9
0.91
0.91
0.9
0.85
0.92
0.93
0.95
0.97
0.95
0.92
0.92
0.97
0.97
0.97
0.98
0.95
0.93
0.91
0.88
0.9
0.95
1
1
0.96
0.92
0.91
0.93
0.94
0.94
0.93
0.92
0.93
0.99
1
0.98
0.93
0.91
0.89
0.9
0.88
0.9
1.03
1.1
1.14
1.06
0.92
0.88
0.94
0.98
0.99
0.92
0.97
0.99
1
0.96
0.91
0.95
0.94
0.92
0.91
0.88
0.91
0.91
0.93
0.9
0.82
0.91
0.94
1.1
1.12
1
0.98
0.94
0.9
0.84
0.84
0.9
0.95
1.01
0.99
0.94
0.96
0.93
0.92
0.85
0.88
0.91
0.93
0.95
0.89
0.88
0.92
0.94
0.94
0.94
0.9
0.89
0.89
0.93
0.93
0.91
0.94
0.98
0.98
0.95
0.85
0.89
0.91
0.92
0.91
0.89
0.89
0.95
0.95
0.9
0.88
0.94
0.94
0.93
0.89
0.87
0.92
0.93
0.93
0.89
0.87
0.91
0.93
0.92
0.91
0.87
0.9
0.92
0.94
0.91
0.83
0.82
0.89
0.92
1
1
0.94
0.94
0.98
0.96
0.96
0.9
0.86
0.94
0.94
0.94
0.89
0.9
0.92
0.92
0.93
0.93
0.88
0.84
0.9
0.91
0.94
0.92
0.88
0.92
0.94
0.98
0.97
0.92
0.93
1
0.98
0.91
0.89
0.91
0.93
0.91
0.83
0.9
0.88
0.9
0.87
0.82
0.92
0.92
0.95
0.92
0.88
0.91
0.89
0.89
0.87
0.87
0.92
0.93
0.92
0.9
0.93
0.98
0.97
0.97
0.92
0.89
0.91
0.92
0.92
0.9
0.94
1.01
1.02
0.97
0.89
0.91
0.94
1
0.97
0.94
1
1.11
1.1
1.03
0.93
0.93
0.93
0.94
0.94
0.94
0.99
0.97
0.93
0.92
0.88
0.94
0.97
0.95
0.93
0.96
0.98
0.97
0.92
0.89
0.9
0.91
0.96
0.94
0.93
0.9
0.94
1.01
1
0.97
0.91
0.89
0.94
0.96
0.93
0.9
0.86
0.93
0.93
0.92
0.91
0.82
0.95
0.92
0.93
0.9
0.89
0.91
0.95
0.95
0.87
0.87
0.9
0.95
0.96
0.93
0.92
0.95
0.96
0.95
0.89
0.89
0.89
0.9
0.87
0.89
0.92
0.94
0.91
0.89
0.88
0.82
0.96
0.91
0.93
0.93
0.95
1
0.98
0.96
0.9
0.9
0.91
0.92
0.92
0.88
0.89
0.93
0.98
1
0.94
0.91
0.94
0.95
0.94
0.89
0.89
0.9
0.9
0.92
0.89
0.91
0.95
1.01
1.07
1.02
0.97
0.96
0.94
0.91
0.89
0.92
0.92
0.96
0.96
0.93
0.9
0.96
0.99
0.97
0.92
0.92
0.93
0.97
0.97
0.92
0.91
0.97
0.95
0.98
0.96
0.9
0.93
0.93
0.95
0.91
0.9
0.94
0.97
0.98
0.92
0.89
0.93
0.94
0.93
0.89
0.89
0.91
0.95
0.96
0.9
0.83
0.9
0.9
0.97
0.93
0.94
0.95
0.96
0.91
0.84
0.94
0.91
0.9
0.86
0.88
0.9
0.91
0.89
0.83
0.91
0.87
0.8
0.88
0.86
0.89
0.9
0.89
0.93
0.97
0.94
0.89
0.91
0.93
0.93
0.93
0.93
0.9
0.93
0.98
0.98
0.98
0.93
0.95
0.97
0.95
0.91
0.91
0.92
0.96
0.95
0.91
0.89
0.92
0.96
0.95
0.91
0.85
0.95
0.95
1.03
0.98
0.95
0.98
1.03
1.03
0.96
0.89
0.93
0.92
0.94
0.94
0.9
0.94
1.02
1.01
0.96
0.92
0.95
0.96
0.98
0.95
0.92
0.92
0.96
0.93
0.95
0.99
1
0.94
0.89
0.94
0.93
0.93
0.9
0.88
0.91
0.95
0.94
0.89
0.82
0.95
0.93
0.96
0.96
0.89
0.85
0.95
0.95
0.94
0.93
0.92
0.92
0.93
0.97
0.94
0.9
0.92
0.99
0.99
0.97
0.93
0.92
0.94
0.96
0.96
0.93
0.8
0.95
0.88
0.87
0.9
0.93
1
1.01
0.99
0.98
1.05
1.09
0.94
0.9
0.92
0.91
0.95
0.93
0.93
1.02
1.05
0.99
0.92
0.91
0.92
0.93
0.92
0.87
0.84
0.97
0.97
0.96
0.97
1
1.31
1.1
1.02
1.08
1.03
1
0.98
0.96
1.04
1.03
1.02
0.98
0.86
1.05
1.01
1
1.01
0.96
0.99
1
1
0.98
0.95
0.97
1
1.01
1
0.97
0.98
1.03
1
0.98
1
1
1.02
0.98
0.96
0.98
1.01
0.99
0.95
0.94
0.96
0.99
0.96
0.97
0.96
1.02
1.03
1
1
1.01
1.02
1
0.95
0.97
0.98
0.98
0.99
0.98
1.01
1.02
1.04
1.03
1
1.07
1.07
1.03
0.98
1.01
1.02
0.99
0.97
0.95
1
1.05
1.03
1
1.03
1.04
1.05
0.98
0.93
0.91
0.94
1
0.98
1.05
1.03
1.04
1.01
1.01
1.02
0.99
0.96
0.99
1.02
1.03
1
1.03
1.05
1.02
0.99
0.95
0.99
0.99
0.98
0.97
0.98
1
1.01
1
0.97
1.01
1.02
1.02
0.99
1.01
1.02
1
0.96
0.98
1
0.99
1
0.95
0.97
1
1.01
1.01
1
1.05
1.05
1.02
0.97
0.98
0.96
0.97
0.92
0.93
1.03
1.17
1.03
1.07
1.17
1.13
1.14
1.05
1.07
1.07
1.04
1.01
1
1.02
1.02
1.01
0.98
1.02
0.98
0.96
0.92
0.91
0.96
0.98
0.97
0.94
0.97
0.99
0.96
0.93
0.91
0.97
0.98
0.95
0.91
0.95
0.97
0.98
0.95
0.88
0.94
0.94
0.94
0.93
0.87
0.9
0.93
0.98
0.97
0.92
0.91
1.01
1.04
1
0.92
0.94
0.96
1
0.96
0.95
1
1.08
1.11
1.06
1.09
1.1
1.07
1
0.9
0.96
1
1.02
1
1.01
1.06
1.08
1.02
0.96
0.97
0.98
0.96
0.91
0.85
0.98
0.98
0.99
0.96
0.93
1
0.99
0.96
0.93
0.91
0.94
1.01
1.03
0.98
0.95
0.97
0.99
0.98
0.92
0.91
0.98
1
0.95
0.93
0.97
1.03
1.02
0.97
0.97
1.04
1.04
0.95
0.91
0.9
0.94
0.98
0.96
0.94
0.98
1
0.96
0.92
0.95
0.95
0.94
0.9
0.91
0.96
1.01
1.01
0.95
1.01
1
1
0.97
0.91
0.95
0.99
1.02
0.97
0.96
1
1.01
0.95
0.92
0.96
0.98
0.94
0.89
0.95
0.96
0.97
0.95
0.92
0.95
0.97
0.97
0.92
0.9
0.92
0.98
0.98
0.93
0.94
0.99
1
0.94
0.85
0.92
0.95
1.01
1
0.98
1.09
1.3
1.12
1.04
1.06
1.14
1.03
0.9
1.14
1.15
1.04
0.91
1.14
1.11
1.07
0.92
1.09
1.06
1
0.92
1.06
0.86
1.1
1.03
1
0.9
1.05
1.01
1.02
1.01
0.97
0.99
0.98
0.99
0.95
0.86
1.04
1.08
1.06
0.92
1.03
1.02
1.02
0.97
0.96
0.98
1
0.98
0.97
0.98
1.02
1.03
1.03
0.93
1.06
1
0.97
0.91
1.01
0.99
1
0.99
0.92
1.03
0.98
0.99
0.94
0.86
1.01
1.06
0.99
1.01
0.93
1.07
1.02
1.01
1.01
0.97
0.99
1.03
1.04
1
0.98
1
1.04
1.02
0.92
1.03
0.99
1
1.01
0.95
0.96
1
1.01
0.99
0.95
0.98
1.01
1.04
0.99
1
1.01
1.02
0.96
0.91
1.01
0.98
1
0.93
1.01
0.99
1
0.92
0.94
1
1.04
1.04
1.01
1
1.05
1.03
0.97
1.02
1
1.02
1.03
0.98
0.99
1.01
1
0.99
0.9
1.01
0.99
1.01
1
0.98
0.97
0.99
0.97
0.99
0.94
0.97
1.06
1.03
0.97
0.98
0.99
0.97
0.95
0.93
1
1.05
1.05
1.01
0.98
1
0.97
0.92
0.99
0.99
1.01
1.03
0.96
0.99
1.02
1.01
0.98
0.9
1.05
1.02
1.02
0.99
0.98
1
1.06
1
0.93
0.98
0.98
1
1.02
0.95
1.01
1.03
1
1
0.95
0.98
1.01
1.03
1.03
0.97
1.02
1
1.01
0.95
0.96
1.05
1.08
1.05
1.01
0.99
1.01
1.02
0.92
1.05
0.99
1.01
0.98
0.91
1.03
1
1
0.91
0.97
1.03
1.01
1.01
0.93
1.04
0.96
0.99
0.93
0.91
1.07
1.06
1.02
1.02
1.06
1.07
1.06
0.94
1.08
1.02
1
1.02
0.97
0.99
1
1.02
1.02
0.99
1.02
1.03
1.02
0.99
0.96
0.99
0.95
0.9
0.96
0.96
0.99
0.96
0.92
0.96
1.02
1.03
0.98
0.92
0.94
0.96
0.98
0.95
0.92
0.92
0.97
0.96
0.94
0.92
0.97
0.96
0.97
0.94
0.94
0.97
1.01
1
0.97
0.99
1.02
1.01
0.98
0.93
0.96
0.98
0.99
0.91
0.91
0.82
1.1
0.96
0.97
0.98
1.03
1.08
1.03
0.95
0.96
1.01
1.02
0.97
0.93
0.98
0.99
0.97
0.94
0.93
0.96
0.94
0.95
0.92
0.94
0.97
1
0.99
0.95
0.97
0.96
0.93
0.91
0.94
0.95
1
1.03
0.98
1.01
0.99
0.98
0.93
0.92
0.94
0.99
0.99
0.95
0.96
1
1
0.96
0.85
0.97
0.93
0.94
0.92
0.96
1
1.05
1
0.98
0.98
1.01
0.98
0.98
0.94
0.94
0.99
1.06
1.17
1.16
1.16
1.12
1.03
0.93
0.94
0.97
0.98
0.92
0.89
0.95
0.99
0.98
0.94
0.93
0.95
0.96
0.98
0.94
0.91
0.98
0.95
0.95
0.93
0.96
0.97
0.99
0.95
0.93
0.97
0.99
0.97
0.94
0.91
0.96
1.01
1.01
0.98
0.94
0.94
0.97
1.01
0.96
0.95
0.99
1
0.99
0.91
0.93
0.92
0.95
0.94
0.9
0.96
1.02
1.02
0.96
1
1.02
1.01
0.96
0.95
0.97
1.02
1.03
0.98
0.97
1
1.01
0.98
0.94
0.94
0.99
1.01
0.99
0.95
0.93
0.95
0.99
0.94
0.93
0.92
0.96
1
0.96
0.85
0.94
0.93
0.98
1
0.96
0.96
1.1
1.21
1.1
1.02
0.94
0.95
0.93
0.93
0.95
1.04
1.21
1.18
1.07
1
1.02
0.99
0.95
0.92
0.96
1.02
1.02
0.99
0.95
1.03
1.01
1
0.95
0.95
0.97
0.98
0.95
0.93
1
1.06
1.09
1.01
0.98
0.96
0.99
0.99
0.95
0.98
1.02
1
0.96
0.91
0.97
0.98
0.98
0.94
0.94
0.94
0.94
0.96
0.93
0.92
0.97
0.99
0.96
0.93
0.92
0.99
0.99
0.99
0.95
0.93
0.97
1.01
0.95
0.93
0.93
0.96
0.99
0.93
0.91
0.94
0.93
0.97
0.94
0.92
0.99
1.04
1.05
1
0.96
0.99
0.99
0.97
0.94
0.97
1.03
1.04
0.96
0.86
0.95
0.94
0.94
1
0.96
1.02
1.21
1.21
1.08
0.96
0.98
0.93
0.96
0.96
0.95
0.99
1.07
1.11
1.08
1.04
1.03
0.96
0.91
0.92
0.96
0.99
0.96
0.93
0.98
0.99
0.95
0.98
0.95
0.97
0.95
0.96
0.97
0.97
0.97
0.98
1.09
1.16
1.12
1.04
1.01
1.01
0.96
0.92
0.9
0.97
1.01
1.05
1.03
0.95
0.95
0.99
0.98
0.97
0.93
0.92
0.98
1.01
0.99
0.94
0.91
0.98
1
0.98
0.95
0.91
0.96
0.94
0.91
0.91
0.95
1.05
1.12
1.11
1.07
1.05
1.04
0.96
0.91
0.99
0.99
1.02
0.96
0.95
1.01
1.04
1.01
0.98
0.97
0.98
0.97
0.94
0.93
0.99
0.93
0.94
0.91
0.96
1.02
1.05
1.01
0.99
1.15
1.28
1.15
1.02
1.03
1.02
1.04
1.04
0.95
0.94
1.03
1.06
1.02
0.96
0.94
0.98
1.01
1
0.95
0.9
0.95
0.97
0.99
0.96
0.93
1.01
0.99
0.98
0.93
0.94
0.97
0.99
0.95
0.91
0.96
0.99
0.98
0.95
0.9
0.93
0.97
1
0.98
0.94
0.95
0.97
0.99
0.98
0.97
0.98
1.03
1.01
0.96
0.97
1.02
1.14
1.14
1.01
1.03
1
0.97
0.97
1.01
1.21
1.18
1.09
1.11
1.1
1.01
1.06
1.06
1.05
1.01
0.95
1
1.05
1.01
0.94
0.96
0.99
0.98
1.01
0.97
0.95
1.07
1.11
1.05
0.98
0.97
0.98
0.98
0.97
0.96
0.96
0.99
1.01
0.99
0.93
0.98
0.98
0.96
0.94
0.96
0.96
0.99
0.98
0.92
0.97
1.02
1.07
1
1.01
1.03
1.04
1.05
0.99
0.98
1.02
1.03
1
0.94
0.96
0.99
1.02
0.99
0.94
0.97
0.98
1
0.94
0.92
0.95
0.97
0.97
0.96
0.92
0.95
0.98
0.99
0.98
0.92
0.93
0.96
0.97
0.96
0.94
0.94
0.99
0.96
0.95
0.93
0.94
1.04
1.03
0.98
0.95
1
1
0.99
0.92
0.96
1
1
1.01
0.94
0.95
1.28
1.09
1.02
0.99
1.01
1.09
1.05
1.03
1.06
1.06
1.06
0.98
1.07
1.02
1.03
1.01
0.97
1
1.06
1.06
1.02
1
1.02
1.04
1.01
0.99
0.93
1.04
1.04
1.03
0.97
1.03
1.03
1.04
1.01
0.97
1.03
1.03
1.03
0.99
0.93
1.05
1.04
1.04
1.01
1.02
1.04
1.05
1
0.98
1.04
1.06
1.04
1
0.97
0.99
1.01
1.01
0.98
1
1.04
1.06
1.05
1.01
1.06
1.06
1.06
1
1
1.05
1.06
1.06
1.04
1
1.03
1.03
0.89
0.92
0.97
1.03
1.13
1.07
1.01
1.09
1.08
1.06
0.98
1.02
1.05
1.03
1.02
0.97
1.03
1.03
1.04
1.03
1
1.04
1.04
1.05
1
0.97
1.01
1.04
1.04
1.03
1.02
1.05
1.06
1.06
1.03
1.01
1.05
1.02
1.01
0.97
1.02
1.02
1.03
0.99
0.99
1
1.04
1.02
0.97
0.96
0.98
0.98
0.99
0.98
0.97
1.03
1.05
1.06
1.01
1.02
1.08
1.05
1.04
1.01
1.04
1.05
1.03
1
1
1.02
1.02
1.02
1
1.04
1.08
1.05
1.03
0.98
0.98
1.01
1.02
1.01
0.94
0.96
1.05
1.09
1.04
1.05
1.05
1.05
0.99
0.91
0.95
0.95
1.01
0.94
0.98
1.01
1.05
1.07
0.98
0.97
0.97
0.99
0.98
0.96
0.97
1.03
1.03
0.99
0.94
0.92
0.99
1.02
1.04
0.97
0.92
0.99
1.03
1
0.96
0.93
0.96
1
1
0.94
0.93
0.93
0.98
0.97
0.95
1.01
1.08
1.06
0.94
0.85
0.99
0.96
0.94
0.95
0.95
1.02
1.17
1.24
1.15
1.13
1.17
1.13
1.01
0.98
1.01
1.05
1.08
1.02
1.01
1.05
1.04
0.98
0.96
0.98
0.96
0.96
0.93
0.96
1.06
1.05
0.97
0.93
1
1.02
0.98
0.94
0.93
0.97
1.01
0.99
0.95
0.95
0.99
0.98
0.97
0.93
0.97
1.02
1.03
0.96
0.91
0.96
0.95
1
0.98
0.92
0.98
1.07
1.09
1.08
1
1.02
1.06
1.04
1
0.94
0.96
1
1
0.94
0.91
0.98
1.02
1.02
1
0.98
1.05
1.08
1.15
1.02
0.98
1
0.98
1
0.95
0.95
1.01
1.04
1.04
0.98
0.99
1
0.99
0.95
0.97
0.99
1.04
0.98
0.94
0.98
1.03
1.06
1.05
0.97
0.97
0.94
1
0.97
0.95
0.98
1.07
1.08
1.04
0.95
0.95
0.98
1
0.94
0.93
0.95
0.95
0.98
0.92
0.92
0.99
1
0.98
0.97
0.92
0.97
1.02
0.98
0.96
0.96
0.98
1
1
0.92
0.95
0.98
1.01
1
0.94
0.93
0.95
0.97
0.94
0.92
0.93
0.96
1.03
1.06
0.99
1.05
1.15
1.15
1.04
1.03
1.05
1.07
1.01
0.92
0.95
1.02
1.02
0.97
0.94
0.96
0.98
0.99
0.95
0.93
0.98
1.05
1.06
0.98
0.88
0.99
0.98
0.97
0.98
0.92
0.93
1.01
1.02
0.95
0.93
0.99
1.02
1.02
0.96
0.95
0.97
0.96
0.96
0.86
0.96
0.99
1.04
1.02
1.01
1.07
1.4
1.15
1.16
1.12
1.07
0.98
1.01
1.05
1.1
1.06
1.07
1.09
1.08
1.03
0.98
1.06
1.12
1.1
1.01
1.01
1.06
1.07
1.02
0.97
1
1.01
1.09
1.05
1
1.03
1.04
1.01
1.02
0.96
0.96
0.97
1
0.97
0.92
0.99
1.02
1.02
0.98
0.97
1.03
1.1
1.05
0.99
1.01
1.08
1.08
0.97
0.93
0.97
1
1.05
1.02
1
1.09
1.16
1.14
1.07
1.07
1.06
1.01
0.97
0.96
0.99
1.08
1.11
1.04
1.06
1.09
1.07
1.04
0.98
1.04
1.11
1.1
1.06
1.15
1.17
1.15
1.07
0.99
1.02
1.07
1.05
0.99
0.98
1.01
1.08
1.06
0.98
1.02
1.02
1.03
0.95
0.92
0.99
1.02
1.04
1.02
0.98
1.02
1.15
1.1
1.03
0.95
1.02
1.06
1.05
1.04
0.98
1.02
1.06
1.06
0.99
1
1.03
1.03
0.96
0.91
0.94
0.98
1.05
1.01
0.99
1.05
1.09
1.1
1
0.99
0.94
0.96
0.92
0.9
0.97
1
1
0.98
1.06
1.1
1.06
1.01
1.03
1.02
0.96
0.94
0.97
1.17
1.19
1.17
1.06
1.09
1.18
1.14
1.01
1.03
1.03
1.05
1
1.01
1.01
1.03
1
0.95
0.97
1.02
1.06
0.99
1
1.03
1.03
0.98
0.97
1.01
1
0.95
0.94
0.95
0.98
0.97
1
1.04
1.1
1.13
1.07
0.98
0.96
0.97
1.01
1.02
0.97
0.99
1.06
1.11
1.06
0.98
0.89
0.92
0.97
1.07
1.05
1.08
1.18
1.26
1.13
0.99
1.07
1.13
1.09
1.05
0.99
1.03
1.07
1.04
1.01
1.04
1.06
1.04
0.98
1
1.03
1.06
1.06
1
1.01
1.03
1.07
1.05
1.02
1.09
1.1
1.08
1.01
1.01
1
1.03
0.99
0.96
1.01
1.09
1.04
0.96
0.98
1.01
1.06
1
0.96
1
1.06
1.09
1.03
0.98
0.99
1.05
1.06
1
0.97
0.99
1.04
1.02
1
0.94
0.97
1
1.04
1.03
0.99
1.01
0.99
1.03
0.97
0.97
0.97
1
0.99
0.93
0.95
1.03
1.06
1.01
0.97
1.05
1.06
1.04
0.99
1.04
1.05
1.03
0.98
0.99
1.01
1.01
0.97
0.96
0.94
1.01
1
0.97
0.98
1.05
1.07
1.01
1.01
1.01
1.02
0.99
0.96
1.1
1.12
1.15
1.04
1.01
0.99
1.03
1.04
1
1.08
1.18
1.15
0.9
0.83
0.83
0.9
1.01
0.98
0.89
0.84
0.83
0.83
0.82
0.79
0.9
0.87
0.75
0.74
0.76
0.77
0.75
0.91
0.82
0.77
0.73
2.08
5.15
0.4
0.23
0.37
0.25
0.62
0.54
0.67
0.7
0.66
0.64
0.77
0.58
0.78
1.3
0.54
0.73
0.59
0.67
0.28
0.36
1.35
0.67
0.67
0.68
1.33
0.7
0.72
0.78
0.9
0.98
1.02
0.99
0.96
0.92
0.89
0.84
0.84
0.89
1
1.14
1.17
1.17
1.1
1
1.1
1.25
1.3
1.11
1.01
1.09
0.97
0.97
0.95
1.1
1.49
1.29
1.11
0.99
1.04
1.09
1.05
0.98
0.97
1.05
1.11
1.1
1.03
0.98
1.06
1.05
0.96
0.93
0.97
1.1
1.47
1.24
1.34
1.23
1.14
1.03
1.04
1.16
1.12
1.05
1
1.02
0.98
1
0.99
1.18
1.2
1.34
1.14
1.18
1.14
1.13
1.04
1.01
0.97
0.98
0.97
0.99
1.2
1.2
1.2
1.05
1.08
1.08
1.08
0.99
0.94
1.03
1.15
1.21
1.18
1.23
1.18
1.18
1.07
1.07
1.12
1.02
0.95
0.95
1.07
1.2
1.1
1.07
1.06
1.19
1.14
1.05
0.98
1.08
1.16
1.09
1.05
1.11
1.17
1.15
1.08
1.01
1.13
1.18
1.12
1.06
0.95
0.97
1.01
1.07
1.25
1.5
1.19
1.14
1.2
1.13
1.09
1.01
1.05
1.09
1.05
1.01
0.91
0.9
0.92
1
1.14
1.5
1.25
1.13
1.02
1.09
1.14
1.02
0.97
0.91
0.99
1.22
1.17
1.1
1.08
1.2
1.16
1.1
1.06
1.08
1.11
1.07
1
1.05
1.17
1.18
1.06
1
1.07
1.13
1.05
0.97
1.02
1.11
1.06
1.07
1.55
1.38
1.16
1.07
1.14
1.14
1.07
1
1.02
1.1
1.13
1.12
1.01
1.03
1.18
1.14
1.07
1.15
1.16
1.12
1.04
1.07
1.14
1.12
1.03
0.96
1.01
1.03
1.05
1.02
0.99
1.12
1.08
1.02
1
1.06
1.05
1.02
0.98
1.01
1.03
1
0.96
1.05
1.07
1.17
1.03
1.06
1.21
1.14
1.1
1.17
1.16
1.12
1.08
1.02
1.15
1.21
1.13
1.09
1.02
1.01
0.97
1.1
1.36
1.15
1.05
1.1
1.13
1.05
1.02
1.05
1.06
1.04
0.99
0.99
0.96
0.95
0.93
1.08
1.34
1.25
1.13
1.15
1.22
1.13
1.03
1.04
1.08
1.11
1.06
1.05
1.11
1.13
1.09
1.04
1.09
1.1
1.07
1.08
1.43
1.17
1.06
1
1.05
1.07
1.02
0.99
1.08
1.14
1.08
0.96
0.92
0.98
0.96
0.95
0.96
1.09
1.48
1.2
1.07
1.29
1.14
0.98
0.94
1.02
1.14
1.19
1.12
1.3
1.1
1.05
0.98
1.08
1.03
1.01
1.01
1.35
1.25
1.1
0.99
1.01
1.03
1
1.07
1.03
1.41
1.21
1.13
1.06
1.07
1.14
1.11
1.02
0.97
1.01
1.05
1.04
1.03
1.13
1.24
1.14
1.03
1.01
1.01
1.03
1.02
1.19
1.16
1.19
1.1
1.07
1.01
1.02
0.98
1.08
1.14
1.09
1.04
1.01
1.06
1.09
1.08
1.03
1.03
1.12
1.13
1.09
1.02
1.03
1.04
1.07
1.03
1.01
1.02
1.05
1.01
0.96
1
1.02
1.03
1.01
0.96
1.01
0.99
1.01
1.1
1.41
1.21
1.09
1
0.98
1.04
1.34
1.14
1.2
1.23
1.16
1.09
1.16
1.17
1.13
1.03
1.06
1.07
1.11
1.07
0.99
1.03
1.11
1.14
1.05
0.99
1.03
1.13
1.09
1.05
1.13
1.21
1.18
0.97
0.91
0.94
1.05
1.49
1.19
1.26
1.26
1.17
1.07
1.11
1.13
1.11
1.04
1.09
1.12
1.09
1.05
1.08
1.09
1.09
1.05
1
1.05
1.01
0.98
1.01
1.15
1.18
1.14
1.09
1.14
1.13
1.09
1
1.01
1.05
1.09
1.07
1.04
1.17
1.14
1.1
1.07
1.1
1.1
1.11
1.05
1.03
1.08
1.05
1.01
0.98
1.04
1.11
1.11
1.04
1.09
1.12
1.13
1.08
1.01
1.05
1.11
1.09
1.06
1.08
1.16
1.17
1.06
1.06
1.2
1.24
1.17
0.99
0.97
1.04
1.05
1.15
1.55
1.28
1.13
1.08
1.27
1.06
0.95
0.89
0.96
1.01
1.06
1.21
1.39
1.29
1.2
1.08
1.04
1.08
1.07
1.01
0.98
1
1.04
1.07
1.03
0.98
1.01
1.06
1.02
1.01
0.97
1
1.06
1.07
1.02
0.98
0.99
1.03
1.01
0.95
0.96
1
1.03
1.02
0.95
0.94
0.99
1.06
1.1
1.09
1.39
1.19
1.07
1
1
1.1
0.99
0.91
0.89
0.97
1.03
1.19
1.18
1.44
1.16
1.05
1.01
1.02
1.03
1.01
0.96
1.01
1.05
1.03
0.98
0.95
1
1
0.95
0.95
0.91
0.94
0.98
0.98
1
1.17
1.29
1.17
1.06
1.11
1.17
1.1
1.06
0.98
1
1.03
1.03
1.04
1.05
1.1
1.11
1.12
1.04
1.03
1.01
1.01
0.98
0.97
0.99
1.02
0.97
0.94
0.98
0.99
1.01
0.97
1.03
1.05
1.09
1.03
1.04
1.05
1.01
0.94
0.94
0.98
0.98
0.99
0.96
0.98
0.99
0.96
0.95
0.94
0.93
1
1.03
1.01
0.98
0.98
1
1.01
0.97
0.96
1
1.04
1.01
0.97
0.98
1
0.99
0.96
0.94
0.98
0.98
0.96
0.93
0.91
0.97
0.98
0.96
0.96
1.01
1.06
1.02
0.96
0.94
0.99
0.95
0.92
0.94
0.98
1.02
1.05
1.04
1.02
1.18
1.15
1.08
1.03
1.03
1.07
1.08
1.13
1.23
1.16
1.16
1.04
0.96
0.96
0.94
0.98
0.95
0.97
1.04
1.11
1.14
1.04
0.94
0.91
0.98
1.03
1.01
1.51
1.31
1.16
1.06
1.11
1.1
1.1
1.1
1.05
1.05
1.16
1.14
1.09
1.04
1.16
1.16
1.07
1.01
0.95
0.99
1.02
1.04
1.02
0.99
1.08
1.07
1.04
0.99
0.99
1.05
1.12
1.11
1.01
0.96
0.96
0.99
0.99
0.99
0.95
0.97
1.03
1.02
1.01
1.05
1.11
1.15
1.12
1.08
1.16
1.1
1.02
0.97
0.99
1.09
1.15
1.1
1.04
1.08
1.17
1.08
1
1.01
1.13
1.16
1.08
1.02
1.06
1.08
1.06
1.02
1
1
1.05
1.08
1.04
0.99
1.03
1.07
1.06
1.02
0.98
0.98
1
0.98
0.97
0.94
0.96
1.01
0.98
0.95
0.97
1
0.99
0.95
0.96
0.99
0.99
0.96
0.96
0.99
1
0.97
0.94
0.96
0.93
0.95
0.95
0.95
1.08
1.23
1.17
1.05
1.06
1.07
1.08
1.03
1.05
1.21
1.14
1.05
0.98
1.01
1.06
1.05
0.99
0.98
0.98
0.97
0.96
0.97
1.01
1.09
1.09
1.07
1.03
1.07
1.06
1.01
0.95
0.93
0.91
0.92
0.94
0.98
1.48
1.21
1.06
1.07
1.09
1.1
1.04
1
0.99
0.96
0.99
0.98
0.98
1.09
1.16
1.14
1.06
1.04
1.02
1.05
1.01
1.03
1.03
1.04
1.03
1.06
1.1
1.1
1.05
0.99
0.98
0.98
0.97
0.99
0.98
1.03
1.08
1.16
1.1
1.14
1.1
1.01
0.96
0.96
0.99
1
0.98
0.98
1.08
1.11
1.08
1.02
1.04
1.02
1.03
1
1.05
1.09
1.1
1.05
1
1.02
1
0.99
0.96
0.99
0.99
0.98
0.96
1.01
1.03
1.02
0.96
0.96
1.01
0.98
0.97
0.97
0.98
1.01
1.06
0.95
0.95
0.99
1.03
0.99
1.01
1.01
1.06
1.14
1.09
1.15
1.04
0.97
0.97
1.01
1.36
1.21
1.08
1.08
1.12
1.13
1.08
1.05
1.19
1.18
1.12
1.07
1.06
1.09
1.04
1.01
0.99
1.03
1.06
1.08
1.05
1.02
1.05
1
0.97
0.91
0.92
0.95
0.96
0.92
0.95
0.97
0.95
0.93
0.91
0.95
1
1.04
0.98
0.93
0.94
0.96
0.97
0.96
1.02
1.18
1.19
0.99
0.91
0.88
0.93
0.97
1.01
1.04
1.5
1.26
1.15
1.13
1.15
1.07
1.02
1.03
1.2
1.18
1.09
1.02
1.13
1.11
1.08
1.01
0.92
0.84
0.91
0.94
0.95
1
1.27
1.31
1.19
1.09
1.07
1.12
1.13
1.07
1
1.04
1.05
1.05
1
1
0.99
0.98
0.95
0.98
1.02
1
1
0.97
1.04
1.05
1.03
0.96
0.95
0.99
1.01
0.98
0.98
1.06
1.07
1.02
0.96
0.96
1
0.99
0.98
0.94
0.96
0.98
0.95
0.91
0.91
0.98
1.02
1.04
1.02
0.98
1.01
1
0.97
0.94
0.93
1
0.99
0.94
0.9
0.94
0.93
0.93
0.93
0.96
1.07
1.08
1.07
1.01
1.06
1.05
1.04
1.02
0.97
0.99
0.99
1.01
1
0.98
1.08
1.1
1.1
1.01
0.94
0.98
0.97
0.99
1
1.07
1.17
1.17
1.1
1.16
1.13
1.09
1.01
1
1.07
1.08
1.04
1
1.02
1.05
1.06
1.04
1
1.03
1.01
0.96
0.95
0.93
0.97
1
1
0.99
0.95
0.98
0.99
0.97
0.95
0.93
0.94
0.99
0.97
0.95
0.93
0.94
1
1.03
0.98
0.94
0.96
1.01
0.99
0.96
0.94
0.97
1.04
1.03
1
1.03
1.03
0.99
0.96
0.96
1.05
1.04
0.99
0.94
0.95
0.99
1.01
0.98
0.96
0.92
0.96
0.97
0.98
0.98
0.95
0.95
0.96
0.97
0.96
0.95
0.99
1
0.99
0.95
0.94
0.99
1
1.03
1.01
0.97
0.98
1.03
1.05
1.04
0.98
1.01
1.03
1.01
0.97
0.93
0.94
0.98
1.01
1.01
1
1.07
1.14
1.16
1.06
0.99
0.99
0.98
0.98
0.94
0.95
1.02
1.03
1.02
0.99
0.97
0.99
1
0.99
0.98
0.96
0.95
1.03
1.03
1
0.95
0.91
0.94
0.98
0.93
0.92
0.95
0.97
0.97
0.97
1.09
1.13
1.14
1.03
0.97
1.01
1.01
1.02
1.02
0.94
0.92
0.89
0.92
0.93
1.03
1.45
1.18
1.07
1.1
1.08
1.05
0.99
0.97
1.07
1.1
1.1
1.06
1
1.05
1.08
1.05
1.02
1
1.05
1.03
1.03
1.02
0.98
1.02
1.06
1.04
1.01
0.99
1.04
1.05
1.04
0.99
1.03
1.04
1.04
0.99
0.93
0.97
1
1.02
0.99
0.96
1.01
1.02
1.03
1
0.97
1.1
1.11
1.08
1.02
0.95
0.97
1
0.94
0.92
0.94
1.01
1.05
1.06
1.04
0.98
1
1.03
1.04
1
1.03
1.08
1.05
1
0.95
1.01
0.99
0.99
0.97
0.94
0.89
0.88
0.91
0.89
0.9
1
1.06
1.09
1.03
1.13
1.25
1.15
1.09
1.01
1.03
1.07
1.07
1.03
1.03
1.09
1.11
1.05
1
1.01
1.02
1.03
1
1.02
0.93
0.91
0.89
0.89
0.92
0.86
0.86
0.81
0.81
0.79
0.85
0.8
0.79
0.86
0.82
0.78
0.8
0.84
0.82
0.79
0.78
0.8
0.78
0.77
0.78
0.75
0.75
0.76
0.78
0.79
0.77
0.79
0.77
0.76
0.75
0.76
0.75
0.76
0.74
0.75
0.75
0.73
0.77
0.83
0.86
0.92
0.96
1.01
1.01
0.96
0.94
0.96
0.9
0.89
0.87
0.88
0.96
1.02
1.03
1.01
0.99
1.02
1.04
1
0.98
0.93
0.93
0.97
1.01
1.03
1.04
1.01
1.06
1.06
1.03
1.02
0.97
0.94
0.97
1
1.02
1.02
0.97
0.99
1.05
1.06
1.03
0.97
1.01
1.09
1.06
1
0.99
1.05
1.36
1.16
1.04
1
1.04
1.03
1.05
1.03
1.08
1.1
1.07
1.02
1.01
1.04
1.05
1.04
1.02
1
1.01
1.02
1.01
0.98
1.03
1.07
1.02
1.02
1.04
1.06
1.05
1.01
1.05
1.06
1.01
0.98
0.98
0.99
0.99
0.98
0.97
1
1
0.98
0.98
1
1
0.96
0.97
1.01
0.96
0.93
0.91
0.95
1.02
1.02
0.99
0.99
1.03
1.01
0.97
0.96
1.01
1.02
0.98
0.96
0.94
0.94
0.98
0.96
0.95
0.97
1.03
1.02
1.03
0.97
0.95
1.09
1.15
1.12
1.06
1.05
1.05
1.01
0.98
0.98
0.97
0.98
0.97
0.99
1.02
1.09
1.1
1.05
1.06
1.08
1.04
0.99
0.99
1.01
1.05
1.01
0.95
0.95
0.99
0.97
0.98
1.17
1.23
1.13
1.13
1.23
1.18
1.08
1.01
0.99
1.03
1.07
1.04
1.01
1.04
1.1
1.1
1.04
1.02
0.98
0.98
1.03
1.05
1.02
0.99
0.97
0.99
1.03
1.04
1.04
1.15
1.19
1.09
0.98
0.94
0.97
1.03
1.04
1.01
1.01
1.01
1.01
0.98
0.96
1.01
1.01
0.99
0.97
0.94
0.96
0.99
1.01
1
0.97
1.04
1.07
1.04
0.96
0.96
1.04
1.12
1.07
0.98
1
1.02
1
0.98
0.95
0.97
1.02
1.02
1
0.97
0.97
0.96
0.95
0.96
0.93
0.96
0.99
1.01
0.96
0.95
0.95
0.96
0.97
0.95
0.97
1.08
1.14
1.13
1.05
0.95
1.01
1.07
1.1
1.07
1.15
1.21
1.11
1.04
0.98
0.98
0.98
0.99
1
0.98
1.05
1.09
1.11
1.11
1.06
1.08
1.1
1.04
0.97
0.97
0.96
0.95
0.95
0.96
0.99
0.95
0.97
0.95
0.95
1
1.03
1.03
0.98
0.97
1.01
1.02
0.98
0.97
0.94
0.97
0.94
0.97
0.95
0.96
1.02
1.01
1.04
0.98
0.99
1
1.01
0.96
0.95
0.96
1.16
1.25
1.15
1.06
0.95
0.97
1
1.05
1.06
1.03
1.13
1.17
1.1
1
1.01
1.03
1.01
0.95
0.92
0.97
0.97
1
0.98
0.96
1.01
1.02
1.01
0.96
0.97
0.98
1.01
0.98
0.95
0.98
1.04
1
0.98
0.98
1
0.99
0.96
1.02
0.99
1
1.03
1
0.98
0.98
0.98
1
0.96
0.96
1.01
1.02
1.02
0.97
0.98
1.02
1.02
0.97
0.94
0.95
1.02
0.99
0.96
0.93
0.99
1.01
1.01
0.98
0.95
0.98
0.98
1.01
0.97
0.98
0.97
1.01
1.01
0.99
0.96
0.98
1.01
1.01
1
0.97
1.05
1.1
1.11
1.09
1.02
1.04
1.04
1.02
0.97
0.93
0.99
1.01
1.03
1.01
0.99
1.11
1.12
1.08
1.02
1
0.98
0.95
0.95
0.99
0.99
1.02
1
0.96
0.97
1
0.98
0.95
0.95
0.98
0.97
0.97
0.95
0.95
0.98
1
0.98
0.98
0.99
0.97
0.99
0.99
0.96
0.96
0.99
1.02
0.97
0.96
0.97
0.99
1
0.96
0.94
1
1.04
1.01
0.96
0.99
0.98
1
1
0.94
0.98
0.96
1.03
1.04
1
1.02
1.07
1.07
1.02
1.07
1.13
1.14
1.06
1
1
1.03
1.01
0.96
0.93
0.99
1
0.97
0.97
0.96
1.03
1
0.97
0.93
0.94
0.99
1.01
1.04
1
0.98
1
1
0.99
1.03
1.11
1.15
1.07
1.01
1.04
1.03
1
0.97
1
1.01
1.01
0.99
0.99
1.05
1.05
1.05
1.03
0.98
1.03
1.01
1
1
0.98
0.99
1.04
1.06
1.04
0.94
0.95
0.99
1.02
1.01
0.99
1.04
1.07
1.08
1.02
0.96
0.97
0.97
0.97
0.95
0.95
1.01
0.99
0.95
0.93
0.95
0.96
0.98
0.96
0.96
0.99
0.96
0.95
0.94
0.95
1
1
0.98
0.98
0.96
1.02
1.04
1.02
0.98
0.97
1
1.02
1.02
1
0.97
0.97
0.95
0.93
0.95
1.05
1.14
1.17
1.09
1.05
1.09
1.15
1.11
1.01
1.05
1.01
1.03
1
0.99
1.06
1.07
1.01
0.97
0.97
0.99
0.97
0.95
0.95
0.94
0.96
0.98
0.96
0.95
0.96
1.04
1.03
1.04
1
0.97
1
1.01
0.99
0.96
0.95
1
0.99
1.01
1
0.99
1.03
1.05
0.94
0.91
0.96
1.01
1.03
1
1.06
1.32
1.15
1.03
1.04
1.07
1.1
1.06
1
0.97
1.03
1.07
1.07
1.04
1
1.02
1.04
1.02
1.04
1.21
1.18
1.1
1.02
1.04
1.04
1
0.97
1.01
1.05
1.05
0.98
0.97
1.04
1.03
0.97
0.93
0.95
0.96
0.99
0.96
0.92
0.94
1
1.04
1.06
1.01
1.01
1.05
1.01
0.95
0.95
1.17
1.14
1.12
1.05
1.02
1.08
1.05
1.03
1
1.02
1.08
1.08
1.04
1.01
1.06
1.07
1.05
1.01
1.05
1.08
1.08
1.04
1.02
1.02
1.05
0.99
0.96
1.04
1.05
0.99
0.98
0.99
1.01
1.02
0.96
0.98
1.01
1.07
1
0.98
0.95
0.97
1
1
1
0.96
0.98
1.01
0.98
0.97
0.96
0.99
1.01
1.02
1
1.01
1.1
1.25
1.08
1.01
1
1.02
1.08
1.03
0.99
1.07
1.1
1.05
1.02
0.99
1.01
0.97
1
1
0.99
1.04
1.09
1.09
1.03
0.99
1.02
1
1.03
1.01
1.02
1.02
1.01
0.99
1
1.02
1.11
1.06
1.03
1.04
1.06
1.02
0.97
0.96
0.99
0.97
0.95
0.95
0.92
0.95
0.98
1.01
0.95
0.91
0.91
0.95
0.96
0.96
0.99
0.96
1.17
1.06
1.02
1.07
1.09
1.05
1.04
1.01
1.03
1.03
1.04
1
1.04
1.07
1.11
1.03
1.04
1.02
1.02
1.04
0.98
1
1.04
1.05
1
0.99
1.04
1.02
0.99
0.97
1.01
1.03
1
0.96
0.98
1.05
1.09
1.1
1.04
1
1.06
1.1
1.05
0.99
1
1.09
1.06
1
1.01
1.04
1.04
1.02
1
1.03
1.03
1.04
1.02
0.98
1
1
1.02
1.02
1.01
1.05
1.09
1.03
0.99
1.01
1.06
1.09
1.05
1.02
1.02
1.03
1.1
1.05
1.01
0.98
1.01
0.98
0.98
0.95
0.97
1.03
1.05
1.02
0.99
0.98
1
0.98
0.94
0.93
0.97
0.99
1
1.02
0.98
1.12
1.12
1.03
0.96
0.93
0.97
1.01
1.01
1.05
1.01
1.05
1.07
1.09
1.07
1.02
1.02
1.01
0.99
0.95
0.94
0.99
0.99
1.02
0.99
0.92
0.95
0.96
0.97
0.98
0.98
1.02
1.04
1.04
1.01
1.04
1.01
0.98
0.94
0.95
0.99
0.95
0.96
0.95
0.95
1
1.03
1.02
0.99
0.99
1.02
1
0.98
0.95
0.97
0.93
0.94
0.92
0.98
1.11
0.99
0.93
0.94
0.97
0.99
0.95
0.96
1.01
0.99
1.03
0.96
1
1
0.98
0.99
0.94
1
1.05
1.05
0.99
1.01
1.02
1.01
0.98
0.96
0.98
1
0.98
0.96
0.95
0.96
0.97
1
0.99
0.97
0.94
0.96
0.99
0.99
0.96
0.94
0.93
0.94
0.97
0.95
0.94
0.95
0.98
0.95
0.94
0.94
0.98
0.98
0.95
0.94
0.95
0.98
0.99
0.98
0.95
1
0.99
0.95
0.96
1
1
1
0.94
0.92
0.99
0.99
1.02
0.98
0.98
1.02
1.06
1.02
0.98
0.94
0.98
0.99
0.99
0.99
0.99
1.03
1.03
0.99
1.02
1.07
1.03
0.99
0.98
1.03
1.02
0.98
0.97
0.93
0.95
0.97
0.98
0.98
0.97
0.96
0.99
1
1.02
1
1.09
1.11
1.13
1.04
0.96
0.95
0.92
0.93
0.95
0.96
0.99
0.98
0.96
0.99
0.98
0.97
0.94
0.96
1.01
0.97
0.97
0.96
0.97
0.99
0.98
0.96
0.98
0.94
0.95
0.98
0.97
1.1
1.1
1.1
1.05
1.02
1.03
1.03
1.01
0.99
0.98
1
0.99
0.93
0.91
0.99
1
0.97
0.94
0.95
0.98
1.02
1
1.01
1.11
1.23
1.11
1.02
1.01
1.01
1.01
0.97
1
1.19
1.15
1.04
1
1
0.99
0.94
0.91
0.91
0.94
0.94
0.9
0.95
0.93
0.94
0.94
0.94
1.01
1.07
1.13
1.07
1.06
1.06
1.04
1
0.98
1.06
1.05
1.04
1
1.06
1.03
1.02
0.97
0.98
1.04
1
0.99
0.97
0.89
0.89
0.91
0.91
0.91
1.01
1.08
1.11
0.95
0.88
0.82
0.85
0.86
0.85
0.79
0.81
0.79
0.77
0.76
0.76
0.76
0.77
0.75
0.75
0.75
0.75
0.74
0.73
0.72
0.7
0.7
0.67
0.67
0.66
0.65
0.64
0.64
0.63
0.62
0.62
0.61
0.61
0.62
0.61
0.61
0.63
0.65
0.69
0.75
0.83
0.88
0.92
0.86
0.79
0.78
0.77
0.82
0.87
0.86
0.87
0.9
0.87
0.82
0.82
0.88
0.97
1.02
1.07
1.07
1.07
1.06
1.06
1.02
1.07
1.1
1.09
1.07
1.02
1
0.97
0.98
0.97
1.06
1.23
1.16
1.16
1.15
1.23
1.07
0.98
0.94
1.03
1.13
1.17
1.19
1.14
1.22
1.18
1.12
1.1
1.04
1.02
1.03
1.06
1
0.99
0.99
1.03
1.07
1.06
1.02
1.07
1.09
1.05
0.99
0.97
0.98
1
0.99
0.94
0.97
0.97
0.97
0.95
0.91
0.97
1.02
0.99
0.95
0.95
0.95
0.94
0.91
0.92
0.96
0.99
0.98
0.98
1.01
0.95
0.93
0.89
0.88
0.88
0.9
0.94
0.92
0.93
0.99
1
1.01
0.98
0.95
0.97
0.93
0.92
0.9
0.92
0.92
0.93
0.95
0.95
0.95
0.98
1
1.04
1.01
0.98
0.99
1.01
0.98
0.91
0.94
1.01
1
0.99
1
1.03
1.02
1.02
0.95
0.91
0.9
0.94
1.05
1.14
1.12
1.3
1.17
1.06
1.04
1.06
1.02
0.98
0.99
0.97
0.95
0.94
0.97
1.01
0.99
0.97
1.01
0.99
0.99
0.95
0.97
0.97
0.95
0.91
0.91
0.9
0.93
0.89
0.87
0.84
0.85
0.86
0.88
0.88
0.9
0.92
0.91
0.91
0.97
0.95
0.95
0.92
0.94
0.96
0.96
0.97
0.92
0.96
1
1
1.03
1.02
1.05
1.04
1
0.93
0.93
0.92
0.92
0.94
0.93
0.95
0.97
0.96
0.94
0.93
0.95
0.98
0.98
0.96
0.93
0.96
0.97
0.97
0.94
0.94
0.97
0.99
0.97
0.94
0.94
0.97
0.98
0.95
0.94
0.97
0.94
0.94
0.94
0.93
0.92
0.9
0.91
0.94
0.92
0.9
0.9
0.89
0.87
0.9
0.88
0.87
0.87
0.91
0.96
0.98
0.95
0.92
0.93
0.91
0.9
0.88
0.89
0.89
0.89
0.89
0.89
0.91
0.92
0.89
0.89
0.93
0.94
0.91
0.9
0.91
0.93
0.93
0.91
0.91
0.94
0.93
0.95
0.95
0.9
0.89
0.9
0.92
0.92
0.89
0.88
0.9
0.94
0.94
0.93
0.94
0.95
0.94
0.94
0.92
0.9
0.88
0.88
0.89
0.88
0.86
0.89
0.88
0.87
0.86
0.86
0.88
0.92
0.96
0.98
0.97
0.98
0.99
1.03
0.99
0.95
0.91
0.89
0.91
0.92
0.93
0.91
0.92
0.93
0.93
0.95
0.93
0.92
0.9
0.88
0.87
0.87
0.92
0.94
0.96
0.96
1.02
1.03
1.04
1.04
1.01
1.03
1.01
0.99
0.96
0.97
0.99
0.97
0.95
0.99
1.01
0.99
0.97
0.96
0.96
0.96
0.96
0.93
0.93
0.95
0.94
0.96
0.96
1
1.04
1.02
1.01
0.98
0.97
0.95
0.92
0.89
0.9
0.97
1.05
1.1
1.05
1.07
1.17
1.09
1.02
0.96
0.94
0.96
0.98
0.98
0.97
1
1.04
1.02
1.02
0.98
0.93
0.94
0.95
0.96
0.93
0.96
1.03
1.04
1.01
0.99
1
0.99
0.97
0.93
0.92
0.94
0.93
0.91
0.9
0.94
0.97
0.99
0.96
0.97
0.94
0.93
0.93
0.96
0.98
0.97
0.94
0.95
0.94
0.92
0.9
0.9
0.96
0.96
0.95
0.91
0.93
0.94
0.93
0.9
0.9
0.9
0.91
0.9
0.85
0.85
0.9
0.99
0.99
0.98
1.07
1.1
1.04
0.95
0.9
0.9
0.89
0.87
0.86
0.91
0.92
0.95
0.94
0.93
1
1.01
1
0.96
0.98
0.95
0.93
0.97
0.96
0.93
0.92
0.92
0.96
0.96
0.92
0.9
0.96
0.98
0.99
0.95
0.98
1.02
1.01
0.95
0.91
0.94
0.95
0.96
0.95
0.95
0.98
0.97
0.97
0.94
0.97
0.98
0.98
0.96
0.96
0.98
0.98
0.99
0.98
0.91
0.89
0.92
0.93
0.96
0.98
0.96
0.98
1.08
1.1
1.06
1
0.96
0.94
0.92
0.93
0.94
1
1.1
1.06
1.05
1.02
1.05
1.05
0.99
0.96
0.96
0.98
0.96
0.96
0.96
0.96
0.98
0.98
0.94
0.91
0.91
0.94
0.95
0.95
0.92
0.92
0.95
0.96
0.94
0.93
0.97
0.99
0.98
0.94
0.93
0.98
0.96
0.94
0.91
0.91
0.97
0.98
0.94
0.92
0.91
0.92
0.97
0.94
0.96
1
0.97
0.95
0.95
0.98
0.97
0.95
0.89
0.92
0.9
0.94
0.98
1
0.95
0.9
0.97
0.98
1.01
0.95
0.94
0.95
0.94
0.9
0.88
0.9
0.97
1.03
1.06
1.04
1.08
1.09
1.07
1
0.94
0.97
0.95
0.96
0.95
0.93
0.95
0.98
1.01
0.98
0.99
0.93
0.94
0.96
0.96
0.95
0.99
0.98
0.95
0.94
0.97
0.96
1.02
1
0.96
0.93
0.92
0.93
0.92
0.95
1.01
1
0.95
0.93
0.93
0.93
0.92
0.9
0.9
0.91
0.94
0.91
0.9
0.93
0.92
0.94
0.93
0.95
0.98
0.98
0.94
0.95
0.96
0.92
0.95
0.96
0.95
0.93
0.92
0.95
0.94
0.92
0.89
0.88
0.9
0.9
0.89
0.87
0.87
0.88
0.89
0.89
0.87
0.87
0.89
0.9
0.89
0.87
0.86
0.87
0.87
0.92
0.96
1
1.01
0.98
0.93
0.91
0.91
0.91
0.89
0.87
0.86
0.88
0.88
0.89
0.88
0.9
0.92
0.93
0.92
0.9
0.92
0.91
0.92
0.91
0.89
0.86
0.83
0.8
0.78
0.78
0.82
0.84
1.08
1.09
1.07
1.03
1.05
1.04
1.01
0.96
0.92
0.92
0.94
0.94
0.95
0.96
0.97
0.99
1
1
0.95
0.93
0.93
0.95
0.95
0.95
0.95
0.95
0.96
0.98
0.96
0.93
0.92
0.92
0.94
0.93
0.91
0.89
0.93
0.93
0.92
0.94
0.94
0.96
1.01
0.97
0.94
0.92
0.89
0.9
0.89
0.9
0.88
0.89
0.91
0.94
0.95
0.93
0.92
0.91
0.89
0.88
0.89
0.92
0.89
0.86
0.86
0.87
0.87
0.88
0.89
0.88
0.91
0.93
0.91
0.87
0.86
0.87
0.87
0.87
0.85
0.87
0.89
0.89
0.88
0.88
0.89
0.89
0.92
0.91
0.89
0.9
0.92
0.93
0.91
0.91
0.89
0.89
0.87
0.87
0.88
0.9
0.95
0.99
1
0.98
0.95
0.96
0.95
0.92
0.92
0.92
0.93
0.92
0.92
0.92
0.92
0.92
0.94
0.94
0.96
0.93
0.94
0.94
0.91
0.89
0.88
0.9
0.91
0.91
0.89
0.88
0.89
0.93
0.92
0.92
0.91
0.89
0.91
0.92
0.92
0.89
0.89
0.9
0.94
0.95
0.94
0.92
0.94
0.94
0.93
0.91
0.9
0.88
0.87
0.85
0.86
0.84
0.86
0.87
0.89
0.9
0.89
0.89
0.91
0.92
0.91
0.87
0.86
0.86
0.91
0.93
0.93
0.93
0.91
0.92
0.91
0.89
0.85
0.85
0.9
0.93
0.96
0.94
0.97
0.97
0.98
0.94
0.91
0.92
0.92
0.9
0.92
0.91
0.89
0.86
0.86
0.84
0.83
0.84
0.89
1.02
1.04
1.01
1.01
1.04
1.04
0.98
0.91
0.89
0.9
0.92
0.91
0.89
0.91
0.96
0.95
0.96
0.92
0.92
0.93
0.93
0.92
0.93
0.91
0.9
0.92
0.95
1.01
1.05
1.04
1.04
1.07
1.04
1.01
0.96
0.91
0.88
0.89
0.95
0.98
0.98
1.03
1.04
1.04
0.98
0.95
0.97
0.96
0.98
0.99
1.01
1.02
1.04
1
0.95
0.88
0.83
0.78
0.77
0.77
0.77
0.76
0.77
0.88
1.03
1.07
1.08
1.04
1.05
1.04
0.98
0.96
0.94
0.92
0.95
0.97
0.96
0.97
0.94
0.94
0.97
0.97
0.95
0.93
0.94
0.92
0.91
0.95
0.94
0.92
0.92
0.89
0.9
0.88
0.91
0.94
0.93
1.02
1.04
1.09
1.06
1.05
1.13
1.04
1.01
1
1.03
1.01
1.03
1.04
1.05
1.02
0.97
0.95
0.95
0.98
0.97
1.01
1.03
1.04
1
0.99
1.03
1.02
0.96
0.95
0.96
0.89
0.86
0.84
0.86
1
1.17
1.13
1.08
1.14
1.1
1.06
1.01
0.97
0.99
0.99
0.98
0.96
0.97
0.97
0.97
0.95
0.92
0.91
0.92
0.93
0.95
0.96
0.96
0.98
1.03
1.03
1.01
0.99
1
0.98
0.97
0.96
0.95
0.99
0.96
0.97
0.94
0.94
0.96
0.97
0.98
0.95
0.95
0.97
0.96
0.95
0.93
0.94
0.94
0.95
0.94
0.93
0.97
0.99
0.97
0.94
0.91
0.9
0.91
0.92
0.9
0.91
0.95
0.96
0.98
0.99
1.04
1.05
0.98
0.94
0.92
0.92
0.96
1.01
1
0.99
0.98
0.99
1.02
1.01
1
0.96
0.96
0.96
0.96
0.94
0.94
0.97
0.95
0.94
0.91
0.9
0.9
0.95
0.96
0.98
0.97
1
1.03
0.98
0.94
0.94
0.98
0.97
0.97
0.93
0.94
0.95
0.96
0.92
0.91
0.94
0.97
0.96
0.97
0.97
1.04
1.06
1.03
1
1.01
0.99
0.98
0.95
0.94
0.94
0.93
0.92
0.88
0.88
0.98
0.99
1.01
0.97
1
1.01
1.01
0.98
0.95
0.95
0.92
0.92
0.92
0.92
0.98
0.99
0.97
0.94
0.94
0.96
0.92
0.92
0.88
0.89
0.91
0.92
0.93
0.93
0.95
1.01
1.03
1.01
0.99
1.02
1.01
1
1
0.99
0.99
1.01
1
0.96
1
1.01
1
0.94
0.93
0.96
1
1.03
0.95
0.97
1.04
1.11
1.1
1.08
1.06
1.07
1.06
1.02
0.99
1.03
1.04
1.01
0.98
0.97
0.99
1
0.98
0.96
0.98
0.99
0.99
0.96
0.98
1.03
1.01
0.99
0.95
0.93
0.93
0.93
0.92
0.9
0.91
0.95
0.92
0.91
0.92
0.95
0.95
0.94
0.92
0.93
0.95
0.94
0.92
0.94
0.91
0.92
0.91
0.91
0.97
0.96
0.96
0.93
0.94
0.96
0.96
0.94
0.93
0.95
0.96
0.97
0.94
0.94
0.97
0.98
0.97
0.94
0.91
0.95
0.93
0.91
0.87
0.86
0.89
0.88
0.87
0.87
0.91
0.95
0.93
0.93
0.93
0.99
1.01
0.99
0.95
0.95
0.96
0.98
0.98
0.99
1.03
1.07
1.05
1.03
1.05
1.02
1.02
1
0.99
1.03
1.02
0.99
0.98
0.96
0.96
0.95
0.96
0.95
1
1.03
1.05
1.03
1
1.05
1.04
1.03
0.96
0.95
0.96
0.95
0.95
0.92
0.92
0.97
1.01
1
0.98
0.98
1
0.99
1
0.98
1
1.01
1.01
0.99
0.98
1
1
0.99
0.99
0.93
0.93
0.96
0.99
1.06
1.05
1.12
1.15
1.1
1.03
1
1.02
1.01
0.99
0.96
0.97
1.03
1.02
1.01
0.98
0.97
1.01
1.02
1.01
0.98
1.01
1.03
1.01
0.98
0.94
0.96
0.96
0.98
0.97
0.97
1.06
1.07
1.1
1
0.99
0.97
0.99
0.97
0.94
0.93
0.95
0.95
0.95
0.92
0.92
0.96
0.96
0.96
0.93
0.91
0.97
0.98
0.97
0.94
0.93
0.96
0.93
0.91
0.92
0.9
0.92
0.98
0.99
1
0.99
0.98
0.97
0.96
1.01
1.02
1
0.96
0.94
0.98
0.98
0.99
1
0.97
1
1.01
1
0.98
0.96
0.96
0.97
0.98
0.97
0.94
0.98
1
1.01
0.99
0.97
1.01
1.04
1.03
1.01
0.99
1.02
1.02
0.99
0.96
0.95
0.97
0.99
1
0.97
0.99
0.99
0.96
0.95
0.95
0.97
1.03
1.01
0.97
0.94
0.96
0.97
0.94
0.93
0.94
0.97
0.98
0.97
0.96
0.97
0.99
0.98
0.96
0.93
0.95
0.97
0.97
0.96
0.95
0.99
1.03
0.98
0.96
0.94
0.98
0.98
0.99
0.98
0.96
0.98
1
0.99
0.96
0.93
0.97
0.98
0.98
0.97
0.95
0.97
0.98
0.99
0.98
0.94
0.97
0.99
0.99
0.98
0.96
0.95
0.95
0.95
0.97
0.96
0.97
1.03
1.01
0.99
0.98
1
1
1.02
0.98
0.97
1
1.04
1.07
1.07
1.03
1.09
1.1
1.07
1
0.95
0.95
0.94
0.94
0.92
0.92
0.97
0.97
0.95
0.94
0.92
0.94
0.96
0.97
0.95
0.96
0.99
1.04
1.04
1.02
0.99
1
1.02
0.98
1
0.98
0.99
1.02
1.01
1.01
0.98
1.01
1
1
0.96
0.96
0.97
0.97
0.94
0.92
0.92
0.96
0.98
0.99
0.96
1
1.05
1.03
0.99
0.96
0.96
0.96
0.95
0.93
0.94
1
1
0.99
0.95
0.94
0.95
0.95
0.96
0.96
0.96
1
1
0.99
0.98
0.96
0.97
0.96
0.96
0.94
0.94
0.97
0.95
0.97
0.94
0.93
0.96
0.99
1.01
1
1.07
1.11
1.07
1.05
1.01
1.03
1.05
1.02
0.98
0.96
0.99
0.98
0.98
0.99
0.94
0.96
0.97
0.97
0.95
0.95
0.99
1
1.01
1
0.97
0.91
0.87
0.85
0.86
0.94
1.02
1
1.01
1.13
1.13
1.06
1.03
1.07
1.07
1.03
0.96
0.88
0.87
0.84
0.79
0.82
0.89
0.92
1
1.14
1.14
1.12
1.09
1.06
1.12
1.09
1.06
1.06
1.05
1.01
1.06
1.14
1.1
1.07
1.03
0.99
1.02
1.01
1.02
1.01
0.97
0.98
0.99
1
1.02
1
0.99
1.04
1
1
0.97
0.99
1.01
1.01
0.98
0.97
0.97
0.99
0.99
0.96
0.94
0.94
0.95
0.96
0.96
0.95
0.99
1.04
1.04
1.03
0.98
1.01
1.01
1.02
0.99
0.99
1.02
1.02
1
0.96
0.99
0.96
0.94
0.93
0.91
0.94
0.96
0.97
0.94
0.97
0.99
0.97
0.94
0.92
0.92
0.88
0.88
0.85
0.86
0.89
0.93
0.94
0.92
0.92
0.95
0.96
0.94
0.91
0.91
0.93
0.95
0.95
0.93
0.9
0.96
1
1
0.99
1.01
1.06
1.08
1.03
1
1.04
1.03
1.02
0.98
0.98
1.01
1
0.96
0.94
0.94
0.98
0.97
0.96
0.95
0.96
0.96
0.97
0.94
0.92
0.98
0.99
1
0.96
0.97
0.99
0.97
0.95
0.95
0.99
1.01
1.01
0.98
1
1
0.99
0.94
0.93
0.96
0.97
0.98
0.97
0.97
1.02
1.03
0.99
0.95
0.95
0.97
0.96
0.94
0.92
0.95
0.98
0.99
0.99
0.95
0.97
0.98
0.97
0.96
0.94
0.96
0.96
0.95
0.92
0.93
0.96
0.98
0.94
0.99
1
0.98
0.96
0.96
0.98
0.98
0.96
0.97
1.01
1.02
0.99
0.96
0.98
0.99
1.01
1
0.99
1.04
1.03
1
0.98
1
1
0.96
0.95
0.96
0.96
0.97
0.96
0.96
1.07
1.08
1.08
1.05
1.01
1.05
1.03
1.01
0.96
0.97
1.01
1.01
1.02
0.98
1.01
1.02
1
0.96
0.95
0.96
0.94
0.93
0.9
0.91
0.93
0.93
0.9
0.9
0.92
0.96
0.96
0.95
1
1.02
1.02
0.97
0.97
1
1.04
1
0.96
1.02
1.05
1.04
0.97
0.95
0.96
0.98
1
0.99
0.99
1.04
1.05
1.03
1
0.97
1.01
1.01
1.04
1
1.03
1.04
1.02
0.99
0.97
1
0.98
1.02
0.99
0.95
1
1.02
0.99
1.01
0.98
1.02
1.01
0.97
0.93
0.95
0.98
0.99
0.98
0.98
0.98
0.93
0.92
0.89
0.87
0.9
0.96
1.04
0.99
1.01
0.93
0.86
0.83
0.84
0.83
0.82
0.83
0.83
0.83
0.85
0.85
0.85
0.84
0.84
0.87
0.89
0.94
0.96
0.96
0.94
0.94
1.01
1.04
1.05
1.01
1.01
0.98
1
1.04
1.03
1.02
1.04
1
1.01
1.01
0.98
0.95
0.92
0.98
1.02
1.06
1.05
1
1.04
1.03
1.04
0.99
1
1.04
1.02
0.99
0.95
0.91
0.9
0.9
0.89
0.87
0.93
0.88
0.84
0.88
0.97
1.04
1.04
1.03
1.01
1.06
1.05
1.04
1.02
0.98
1.02
1.05
1.05
1.03
1.02
1.01
1.06
1.02
0.98
0.95
0.95
0.99
1
0.99
1
0.99
1.03
1.04
1.03
1
0.99
1.01
1.01
1.02
0.99
0.97
0.98
1
1.01
1.02
1.09
1.1
1.06
1.03
1.03
1.06
1.03
1.01
0.98
1.03
1.04
1.03
1
0.99
1
1
1
0.97
0.97
1.02
1.05
1.03
1.04
1.01
1.04
1.04
1.04
1.02
1.02
1.04
1.07
1.1
1.09
1.05
1.09
1.07
1.04
0.98
0.99
1
0.98
0.98
0.98
1.02
1.08
1.03
0.98
0.95
0.97
0.96
0.97
0.94
0.96
0.99
1
0.99
0.99
1
0.99
0.97
0.95
0.93
0.94
0.96
0.97
0.98
1.03
1.05
1.03
0.98
0.96
0.98
1
1.01
0.98
0.95
0.96
1
1.02
0.97
0.9
0.86
0.86
0.84
0.81
0.83
0.89
0.87
0.81
0.84
0.81
0.8
0.84
0.84
0.84
0.86
0.91
0.95
0.95
0.93
0.88
0.85
0.84
0.82
0.82
0.83
0.77
0.85
0.8
0.81
0.8
0.79
0.8
0.81
0.85
0.91
0.92
0.97
0.99
1.01
1.01
1.02
1.02
1.01
1.04
1.04
1.01
0.99
0.98
0.95
0.96
0.97
0.96
0.96
0.92
0.9
0.87
0.88
0.91
0.96
0.97
1.03
1.13
1.06
1.04
1.01
0.95
0.98
1
1.02
1.02
0.99
0.96
1.01
1.05
1.03
1.01
0.96
0.97
0.99
0.99
0.98
0.98
0.97
1.02
1.06
1.03
0.95
0.94
0.94
0.93
0.9
0.88
0.86
0.84
0.87
0.88
0.89
0.91
0.95
1
1.01
0.99
0.99
0.97
0.98
1.01
1.01
1.01
0.96
0.94
0.99
1.01
1.01
0.98
0.95
0.92
0.91
0.88
0.87
0.91
0.99
1.04
1
0.99
1.09
1.08
1.05
1
0.96
0.99
1.04
1.02
1.02
0.98
0.97
0.97
0.93
0.94
1.08
1.13
1.11
1.05
1.08
1.07
1.04
0.97
0.97
1
0.99
0.97
0.97
0.98
1.03
1.07
1.03
1.01
0.97
0.98
0.97
0.96
0.94
0.95
1.01
1.01
0.99
0.99
0.97
0.92
0.91
0.89
0.86
0.89
0.88
0.84
0.82
0.84
0.86
0.84
0.84
0.85
0.85
0.88
0.88
0.88
0.87
0.85
0.88
0.9
0.91
0.92
0.93
0.91
0.94
0.95
0.98
0.99
0.99
1
1.01
0.98
0.96
0.97
1
0.97
0.93
0.93
0.9
0.88
0.87
0.88
0.9
0.94
0.97
0.96
0.93
0.89
0.89
0.83
0.81
0.86
0.9
0.96
0.93
0.94
0.99
1
0.98
0.93
0.95
0.99
1.01
0.99
0.98
0.99
1.01
0.98
0.99
0.95
0.96
0.97
0.97
0.96
0.94
0.96
1
0.99
0.99
0.97
0.96
0.98
0.97
0.96
0.97
1.02
1.02
0.99
0.96
0.97
1
0.98
0.97
0.92
0.97
0.99
1.01
1
0.98
1.01
0.99
0.98
0.95
0.95
0.99
0.99
0.97
0.94
0.93
0.96
0.95
0.95
0.91
0.98
0.99
0.97
0.92
0.92
0.91
0.91
0.92
0.91
0.94
0.98
1.01
1
0.99
1.03
1.03
0.98
0.95
0.95
0.96
0.98
0.97
0.94
0.99
0.99
0.99
0.98
0.94
0.96
0.98
0.99
0.97
0.99
0.99
0.96
0.94
0.94
0.99
1.03
1.02
1
1
1.02
0.97
0.95
0.91
0.94
0.95
0.95
0.93
0.92
0.97
0.98
0.96
0.92
0.94
0.96
0.99
0.95
0.94
0.98
0.97
0.95
0.93
0.95
0.96
0.92
0.93
0.92
1.02
1.05
1.04
1.01
1.07
1.09
1.01
1
1.05
1.08
1.03
0.96
0.99
0.98
0.98
0.95
0.95
0.98
1.03
1.03
0.98
0.99
0.97
0.95
0.94
0.93
0.94
0.96
0.97
0.96
0.94
0.95
0.95
0.95
0.92
0.95
0.96
0.97
0.95
0.94
0.97
1.02
1.01
0.99
1.02
1.03
0.98
0.95
0.96
0.95
0.95
0.93
0.95
0.98
1
0.99
0.97
0.99
1
0.99
0.96
0.93
0.99
1.03
1.05
1.03
1.09
1.14
1.11
1.04
1.02
1.03
0.98
0.96
0.93
0.95
0.96
0.97
0.92
0.99
1.02
0.98
0.97
0.96
1.02
1.04
1.02
0.96
0.95
0.92
0.92
0.91
0.9
0.93
0.95
0.95
0.93
0.91
0.93
0.98
0.99
1.02
0.97
0.99
0.99
0.99
0.95
0.91
0.95
0.99
1.03
1.03
0.98
0.99
1.02
0.99
0.97
0.88
0.83
0.83
0.85
0.86
0.83
0.82
0.84
0.86
0.84
0.87
0.85
0.94
0.97
0.99
0.97
0.95
0.95
0.96
1.03
1.06
1.07
1.07
1.04
1.06
1.04
1.03
1.03
0.99
0.98
0.98
0.99
1.01
0.99
1.06
1.03
0.96
0.95
0.93
0.93
0.94
0.96
0.97
0.95
0.96
0.97
0.96
0.95
0.95
0.98
1
1
0.97
0.95
0.98
0.98
0.96
0.94
0.91
0.92
0.93
0.92
0.89
0.89
0.9
0.92
0.93
0.91
0.93
0.94
0.94
0.92
0.9
0.93
0.95
0.93
0.92
0.92
0.96
0.93
0.97
0.95
0.97
1
1
0.99
0.97
0.99
1
1
0.96
0.96
0.98
0.99
0.97
0.91
0.91
0.93
0.93
0.94
0.91
0.9
0.95
0.99
0.99
0.97
0.98
1.01
1.02
0.99
0.95
0.96
0.98
0.97
0.96
0.94
0.97
0.98
0.98
0.95
0.94
0.97
0.98
0.97
0.95
0.92
0.94
0.95
0.95
0.92
0.91
0.92
0.95
0.93
0.91
0.93
1
1.03
0.99
0.96
1
1.02
1.02
1.01
0.96
1
1
0.99
0.96
0.94
0.99
0.99
0.98
0.93
0.92
0.96
0.97
0.98
0.94
0.92
0.95
0.96
0.97
0.94
0.97
0.98
0.95
0.91
0.9
0.9
0.93
0.93
0.93
0.93
0.94
0.94
0.97
0.95
0.94
0.95
1.04
1.05
1.03
0.99
1.04
1.04
1.01
0.99
0.96
1
0.98
0.97
0.97
0.93
0.95
0.96
0.95
0.94
0.94
0.97
1.01
0.98
0.98
0.92
0.91
0.96
0.96
0.98
0.99
1.04
1.08
1.06
1.03
1.03
1.05
1.05
1
0.94
0.97
0.96
0.95
0.94
0.92
0.97
0.98
0.98
0.94
0.94
1.01
1.01
0.99
0.97
0.97
0.97
0.99
0.99
0.93
0.94
0.95
0.94
0.98
0.93
0.91
0.97
0.96
0.94
0.93
0.99
1.07
1.06
1.02
0.96
0.96
0.97
0.96
0.94
0.91
0.96
1
0.98
0.99
0.96
1.04
1.05
1.03
0.99
1.01
1.01
1
0.97
0.97
0.99
1.03
1.04
1
0.97
0.99
0.99
0.98
0.96
0.97
0.98
0.99
0.99
0.94
0.92
0.97
0.99
0.99
0.96
0.96
1.05
1.04
1
0.99
0.99
0.99
0.94
0.97
0.95
0.96
0.94
0.9
0.91
0.94
0.95
0.96
0.95
0.97
1
1
0.97
0.94
0.97
1
0.99
0.98
0.96
0.98
0.98
0.96
0.93
0.97
0.99
0.99
0.97
0.96
1
1.12
1.08
1.02
0.98
1.03
1
0.98
0.96
0.92
0.96
0.99
0.97
0.99
0.97
0.99
1
1.02
1
0.93
0.94
0.97
0.96
0.97
0.97
0.98
1.02
1.01
0.97
0.93
0.96
0.98
0.98
0.96
0.93
1
1.03
1.02
0.97
0.97
1
1.01
1
0.95
0.92
0.97
0.99
0.97
0.99
0.96
0.95
0.98
0.97
0.93
0.9
0.91
0.94
0.95
0.98
0.95
0.93
0.97
0.99
0.97
0.98
0.97
0.99
0.97
0.95
0.95
0.98
1.01
0.98
0.92
0.97
0.98
0.96
0.93
0.94
1.01
1.01
1
0.96
0.97
1.01
1
0.98
0.95
0.98
1.01
1.02
0.99
0.94
0.97
0.96
0.97
0.94
0.94
1.01
1.01
0.97
0.94
0.94
0.97
0.98
0.94
0.95
1
0.98
0.98
0.97
0.96
0.98
0.96
0.95
0.92
0.91
0.96
0.98
0.98
0.99
0.96
0.97
1.02
1.04
1.02
0.97
1.02
1.06
0.98
0.97
0.96
0.97
0.96
0.95
0.94
0.96
0.99
0.98
0.99
0.93
1
0.98
0.97
0.96
0.95
0.99
1
0.96
0.94
0.97
0.97
0.97
0.95
0.91
0.95
1
1
0.97
0.96
0.97
1.01
1
0.99
0.97
0.97
0.98
0.96
0.92
0.94
0.93
0.92
0.93
0.91
0.89
0.9
0.94
0.95
0.94
0.96
1.03
1.01
0.97
0.99
0.99
1.01
0.99
0.94
0.98
0.99
0.97
0.96
0.96
0.97
1.02
0.93
0.85
0.82
0.83
0.84
0.82
0.9
0.93
0.9
0.95
0.96
0.99
0.94
0.87
0.86
0.86
0.84
0.81
0.84
0.88
0.95
0.96
0.98
1
1.02
0.98
1
1.03
1.03
1.02
1
0.99
0.97
0.97
0.99
1.02
1
0.98
0.97
0.98
0.98
0.98
0.97
0.94
0.99
1
0.99
0.97
1
1.01
0.97
0.94
0.95
0.99
0.99
0.91
0.88
0.86
0.92
0.97
0.93
0.92
0.96
1.02
1.05
1.01
1.07
1.08
1.04
1
0.98
0.99
0.93
0.89
0.87
0.88
0.93
0.98
0.97
1
1
1.05
1.06
1.04
1.02
0.94
0.89
0.88
0.87
0.84
0.81
0.86
0.9
0.87
0.88
0.87
0.85
0.83
0.86
0.84
0.84
0.83
0.82
0.86
0.91
0.94
0.96
0.98
1
0.98
0.98
1.02
1.03
1.01
1.01
1
1.01
0.99
0.99
0.98
0.99
0.97
0.92
0.9
0.87
0.86
0.91
0.95
0.92
0.9
0.91
0.92
0.9
0.89
0.91
0.94
0.97
0.96
0.95
0.93
0.98
1
1.03
1.01
1
0.97
0.98
0.93
0.89
0.88
0.91
1
1.06
1.04
1.01
1.04
1.03
1.01
1
0.99
1.06
1.05
1.03
0.98
1
1.06
1.05
1.04
0.97
0.97
0.96
0.95
0.93
0.94
0.97
0.98
0.99
0.94
0.92
0.94
0.93
0.94
0.92
0.9
0.96
0.96
0.97
0.94
0.96
0.97
0.96
0.95
0.92
0.93
0.97
0.97
0.9
0.9
0.93
0.94
0.95
0.89
0.86
0.87
0.87
0.85
0.82
0.83
0.86
0.83
0.82
0.79
0.78
0.78
0.79
0.81
0.78
0.78
0.77
0.72
0.54
0.94
0.72
0.71
0.7
0.68
0.68
0.67
0.66
0.66
0.65
0.64
0.64
0.64
0.64
0.65
0.67
0.71
0.75
0.78
0.77
0.77
0.76
0.77
0.75
0.78
0.84
0.83
0.85
0.83
0.87
0.94
0.98
0.98
0.98
0.98
0.95
0.97
0.99
1
1
0.99
0.93
0.89
0.91
0.97
1.01
1.04
1
1.12
1.12
1.06
0.98
0.96
0.95
0.97
0.94
0.96
1.05
1.08
1.03
0.96
0.99
1.07
1.09
0.97
0.89
0.86
0.93
1.04
1.01
0.98
0.93
1.04
1.03
1.01
0.94
0.96
0.99
0.97
0.92
0.89
0.92
0.95
0.96
0.92
0.91
0.98
0.96
0.93
0.9
0.94
0.88
0.84
0.9
0.9
0.93
1.03
1.01
1.01
1
0.97
0.98
1.01
1.02
1.02
1.01
0.96
0.94
0.93
0.97
0.96
1.02
1.07
1.05
1.04
0.98
0.99
0.99
1
0.97
0.94
0.97
0.99
0.98
0.9
0.87
0.88
0.9
0.88
0.87
0.89
0.89
0.88
0.66
1.25
1
0.96
0.96
0.96
0.98
1.02
0.99
0.96
1
1.01
1
0.96
0.92
0.96
0.97
0.98
0.94
0.91
0.94
0.95
0.93
0.95
0.94
1
0.98
0.98
0.95
0.94
1
1.01
0.98
0.93
0.98
0.99
0.94
0.92
0.89
0.96
1.03
1.02
0.96
0.91
0.91
0.94
0.99
1.03
1.03
0.97
1.05
1.07
1.03
0.95
0.94
0.97
0.99
0.95
0.92
1
1.03
1.03
0.99
0.91
0.87
0.88
0.91
0.99
0.99
1.18
1.23
1.12
0.99
0.97
1.05
1.09
1.02
0.94
0.96
0.97
1
0.97
0.92
0.95
1.04
1.06
1.03
0.9
0.86
0.89
0.95
1.02
1.09
1.06
1.29
1.14
1.03
0.94
1
1.02
1.03
0.98
0.92
0.98
0.99
0.98
0.95
0.96
1.03
1.04
0.98
0.93
0.96
0.99
1.03
1
0.95
0.86
0.88
0.89
0.88
0.88
0.95
0.98
0.94
0.92
1.11
1.13
1.04
0.98
1.06
1.07
1
0.96
0.93
1
1.04
1.05
1.03
0.96
0.9
0.95
0.98
1.01
0.96
1.03
1.07
1.07
1.04
0.94
0.91
0.98
0.99
0.96
0.98
0.96
0.89
0.95
0.98
1.01
0.98
0.96
0.98
0.99
0.98
0.94
0.97
0.96
0.97
0.97
0.93
0.91
0.99
1.02
1
0.94
0.9
0.92
0.96
0.97
1
0.96
0.97
0.98
1.01
1
0.94
0.98
0.98
0.95
0.93
0.9
0.94
0.98
0.95
0.94
0.9
0.94
0.95
0.97
0.93
0.91
0.94
0.96
0.94
0.92
0.88
0.87
0.92
0.95
0.9
0.92
1.11
1.17
1.09
0.98
1.08
1.07
1.03
0.99
0.95
0.99
1.03
1.05
1.02
0.95
0.92
0.9
0.87
0.85
0.94
1.1
1.19
1.09
1.05
1.1
1.05
1
0.94
1.01
1.03
1.02
1.01
0.95
0.99
1.01
1.04
1.02
0.96
0.97
0.99
1
0.98
0.94
0.96
0.98
0.97
0.95
0.89
0.94
0.94
0.93
0.89
0.89
0.93
0.92
0.92
0.91
0.95
1
1
0.95
0.91
0.96
0.97
0.96
0.92
0.94
1
1.02
0.97
0.91
0.95
0.97
0.97
0.98
0.94
0.98
1
0.99
0.94
0.96
0.99
1
0.96
0.93
0.99
1.05
1.03
0.97
0.92
0.92
0.93
0.93
0.92
0.96
1.08
1.08
1.04
0.98
1.07
1.07
1.03
0.95
0.96
0.97
0.96
0.97
0.93
0.95
0.99
0.99
0.99
0.95
0.96
1
1.01
0.98
0.94
0.98
1.03
1.03
0.98
0.91
0.97
1.02
1
0.98
0.96
1.01
1.06
1.03
0.98
0.91
0.98
0.99
0.98
0.94
0.93
0.96
1
0.98
0.93
0.93
0.96
1.01
0.99
0.94
0.95
0.98
0.98
0.92
0.97
0.99
1
0.99
0.94
1
1.04
1.05
1.02
0.97
0.94
0.95
0.95
0.94
0.94
1.05
1.06
1.05
0.99
0.95
0.99
1.01
0.99
0.95
0.9
0.94
0.95
0.96
0.91
0.89
0.92
0.96
0.98
0.94
1
1.05
1.04
0.96
0.94
0.99
1.01
0.97
0.94
0.92
0.98
1.02
1.01
0.96
1.01
1.03
1.01
0.97
0.91
0.94
0.97
0.97
0.96
0.91
0.98
1.01
1.01
0.97
0.93
0.97
1
0.99
0.95
0.92
0.97
0.98
0.97
0.91
0.91
0.97
0.97
0.97
0.92
0.93
1.01
1.05
1.01
0.93
0.98
0.97
0.98
0.98
0.97
0.98
1
0.99
0.97
0.93
0.97
1.03
1.04
1.02
0.96
0.99
1
1
0.98
0.93
0.97
0.98
1
0.97
0.92
0.96
0.97
0.95
0.94
0.91
0.93
0.93
0.94
0.92
0.89
0.94
0.94
0.98
0.98
0.94
0.98
1.01
1.01
0.97
0.93
1
0.99
0.97
0.94
0.93
0.96
0.97
0.97
0.93
0.95
0.96
0.99
0.96
0.92
0.93
0.97
0.98
0.97
0.94
0.97
1
1
0.95
0.9
0.91
0.93
0.92
0.91
0.87
0.9
0.96
0.99
0.98
0.92
0.89
0.93
0.96
0.97
0.96
0.93
0.98
1.02
0.99
0.98
0.93
0.96
0.98
0.97
0.95
0.92
0.95
0.96
0.94
0.93
0.89
0.89
0.94
0.96
0.95
0.92
0.93
0.96
0.99
0.98
0.92
0.89
0.93
0.94
0.93
0.92
0.9
0.98
1.02
0.98
0.95
0.92
0.94
0.97
0.98
0.97
0.93
0.96
0.98
0.97
0.95
0.91
0.95
0.98
0.98
0.9
0.92
0.94
0.92
0.9
0.87
0.91
0.93
0.96
0.97
0.96
1.02
0.98
0.96
0.96
0.92
0.93
0.98
1.01
1.02
0.96
0.95
0.99
1
0.97
0.92
0.91
0.93
0.95
0.96
0.92
0.91
0.97
1.01
1.01
0.96
0.93
0.96
0.98
0.98
0.95
0.91
0.93
0.96
0.97
0.96
0.92
1
1.03
1.02
0.97
0.91
0.91
0.95
1
0.99
0.94
0.91
0.94
0.97
0.97
0.92
0.94
0.96
0.98
0.91
0.94
0.94
0.94
0.94
0.9
0.95
0.95
0.97
0.97
0.95
0.96
0.99
0.97
0.91
0.92
0.95
0.97
0.95
0.93
0.94
1.01
1.03
0.98
0.92
0.99
1.03
1.02
0.98
0.92
0.95
0.95
0.98
0.93
0.92
0.98
1.01
1.04
0.97
0.95
1
1.04
1.03
0.94
0.96
0.98
0.97
0.95
0.92
0.96
0.98
1
0.97
0.92
0.97
0.98
0.99
0.97
0.92
0.98
0.98
0.99
1.01
0.94
0.93
0.96
0.98
0.96
0.92
0.91
0.96
0.98
0.98
0.91
0.91
1
1.02
1.03
0.99
0.93
1.02
1.03
1.01
1
0.94
0.97
0.99
0.97
0.95
0.9
0.93
0.96
0.96
0.94
0.9
0.96
1
0.98
0.98
0.92
0.94
0.93
0.94
0.94
0.92
0.92
0.99
1.04
1.04
0.98
0.93
0.98
1.01
0.95
0.91
0.91
0.9
0.93
0.93
0.93
0.97
1.04
1.03
0.97
0.92
0.94
0.99
1.01
0.97
0.93
0.93
0.95
0.97
0.96
0.92
0.99
0.98
0.98
0.93
0.91
0.94
0.95
0.93
0.89
0.96
1
1.01
0.98
0.92
0.95
0.98
0.98
0.97
0.93
0.95
0.98
0.99
0.96
0.91
0.93
0.96
0.99
0.98
0.93
0.93
0.96
0.98
0.94
0.92
0.89
0.94
0.96
0.96
0.93
0.88
0.93
0.92
0.92
0.89
0.9
0.94
0.96
0.97
0.92
0.97
0.99
0.99
0.96
0.91
0.94
0.97
0.96
0.96
0.9
0.88
0.94
0.99
0.99
0.94
0.91
0.95
0.98
0.96
0.92
0.89
0.88
0.94
0.94
0.96
0.94
0.91
0.97
0.99
1.02
0.98
0.92
0.97
0.98
0.98
0.97
0.92
0.98
0.99
1
0.99
0.94
0.95
1
1.01
0.98
0.93
0.9
0.92
0.95
1.01
1.04
0.97
1.01
1
1.05
1
0.93
0.98
1
0.99
0.98
0.97
0.97
0.93
0.91
0.87
0.86
0.94
1
0.99
0.94
1.02
1.04
1.04
0.99
0.95
0.99
1.03
1.04
1.01
0.95
0.96
0.98
0.96
0.93
0.9
0.92
0.97
1.01
1.01
0.97
0.92
0.97
0.96
0.98
0.98
0.93
0.96
1
1.01
1
0.94
0.92
0.96
0.99
0.96
0.91
0.92
0.96
0.99
1
0.92
0.93
0.95
0.97
0.95
0.91
0.95
1
1.02
1.01
0.92
0.95
0.94
0.94
0.92
0.87
0.89
0.9
0.91
0.93
0.89
0.92
0.95
0.98
0.95
0.91
0.93
0.98
1.05
1.01
0.93
0.98
0.97
0.99
0.97
0.91
0.95
0.97
0.97
0.99
0.93
0.96
0.98
0.96
0.93
0.89
0.91
0.96
0.98
0.93
0.98
0.99
0.99
0.95
0.9
0.92
0.93
0.95
0.93
0.9
0.95
0.93
0.94
0.92
0.95
1.03
1.05
1.03
0.96
0.99
1.02
1.02
0.98
0.94
0.95
0.97
0.97
0.95
0.98
1.01
1.02
0.99
0.91
0.97
0.99
1.01
0.98
0.95
1
0.99
0.97
0.9
0.91
0.91
0.97
1.01
0.98
1.1
1.12
1.08
1.05
0.96
0.98
1
0.98
0.95
0.93
0.97
0.97
1.01
0.97
0.94
0.96
1.03
1
0.98
0.91
0.95
0.97
0.96
0.94
0.89
0.94
0.96
0.96
0.95
0.92
0.95
0.99
0.99
0.95
0.91
0.95
0.98
0.98
0.94
0.9
0.93
0.96
1.01
1
0.96
0.96
1.01
1.03
0.99
0.95
0.97
1
1.01
0.99
0.92
0.94
0.96
0.98
0.97
0.93
0.97
0.98
0.97
0.93
0.9
0.92
0.93
0.96
0.96
0.91
0.9
0.94
0.99
1
0.97
0.92
0.99
0.97
1.02
0.95
0.91
0.9
0.92
0.93
0.88
0.86
0.96
1.02
1.05
1.03
0.96
1.04
1.07
1.04
0.99
0.93
0.96
0.96
0.96
0.93
0.9
0.96
0.99
0.99
0.95
0.91
0.94
0.95
0.97
0.92
0.9
0.93
0.98
1.01
0.99
0.95
1
1.03
1.04
0.99
0.94
0.94
0.99
1.01
1.03
0.94
0.99
1.09
1.13
1.07
0.97
0.99
0.99
0.99
0.95
0.91
0.97
0.99
0.99
0.97
0.92
0.94
0.94
0.96
0.94
0.9
0.93
0.96
0.96
0.96
0.91
0.94
0.96
0.99
0.97
0.93
0.96
0.95
0.96
0.94
0.91
0.96
1
1
0.94
0.98
1.03
1.01
0.99
0.93
0.94
0.96
1
0.94
0.9
0.96
0.99
0.97
0.97
0.93
0.95
0.94
0.9
0.89
0.87
0.95
1.1
1.09
1.08
0.98
1.01
1.04
1.02
0.99
0.92
0.95
0.99
1
0.96
0.92
0.99
1.01
1.01
0.96
0.93
0.97
0.99
0.98
0.93
0.95
1
1
1.01
0.96
0.93
0.95
0.97
0.96
0.92
0.97
1.01
0.99
0.96
0.95
0.99
1.01
0.99
0.93
0.97
1
1.01
0.93
0.94
0.98
1
0.97
0.94
0.91
0.95
0.97
0.97
0.94
0.93
0.99
1.02
1.01
0.98
0.93
0.9
0.94
0.97
0.96
0.92
0.89
0.91
0.95
1.02
1
0.94
0.94
0.99
1.01
0.99
0.93
0.94
0.97
0.96
0.97
0.91
0.92
0.97
1.04
1.06
1
1.03
1.1
1.06
0.95
1
1.02
1.04
0.96
0.91
0.96
0.99
0.96
0.92
0.89
0.92
0.94
1
0.97
1.08
1.07
1.11
1.04
0.96
1
1.03
1.03
1.01
0.94
0.97
0.97
0.97
0.95
0.88
0.89
0.9
0.91
0.9
0.9
0.96
1.03
1
1.01
0.94
0.93
0.97
0.98
0.98
0.95
0.91
0.94
0.97
1.01
0.97
0.94
0.99
1.08
1.05
0.99
0.97
1.03
1.06
1.07
1
0.93
0.97
0.97
0.98
0.96
0.93
1
1.12
1.07
1.01
0.93
0.95
0.99
0.98
0.94
0.92
0.99
1
0.98
0.94
0.95
0.99
0.95
0.98
1.01
0.98
0.92
0.91
0.94
0.98
0.98
0.94
0.92
0.98
0.99
0.95
0.92
0.9
1.01
1.06
1.04
1.01
0.95
0.98
1.04
1.03
0.98
0.91
0.94
0.98
1
1
0.95
0.95
1
1
1.01
0.94
0.96
0.99
1.03
0.99
0.96
0.92
0.97
0.9
0.88
0.84
0.84
0.92
1
1.02
0.98
1.09
1.14
1.07
1.02
0.95
1.04
1.06
1.05
1.02
0.94
0.98
1.02
1.02
0.98
0.94
0.96
1
1
1.02
0.94
0.97
1.01
1.03
0.97
0.93
0.92
0.95
1
0.98
0.93
0.94
0.94
0.93
0.9
0.89
0.93
1.01
0.96
0.96
0.92
0.96
1
1.03
1
0.96
1
1.03
1.08
1.03
0.96
0.96
0.95
0.94
0.9
0.92
0.94
0.97
0.98
0.95
0.93
0.99
0.99
0.96
0.94
0.92
0.94
0.99
1.03
1.01
0.96
0.91
0.94
0.98
0.96
0.94
0.91
0.94
0.95
0.95
0.93
0.89
0.91
0.94
0.98
0.98
0.96
0.92
0.95
0.97
0.98
0.97
0.92
0.93
0.98
1
0.97
0.91
0.95
1.02
1.04
0.98
0.93
0.98
1
1.01
0.98
0.93
0.96
0.96
0.96
0.91
0.9
0.98
0.99
0.95
0.92
0.96
0.96
0.96
0.95
0.91
0.93
0.98
1.02
0.99
0.94
0.91
0.94
0.96
0.94
0.93
0.9
0.96
1.01
0.99
0.98
0.91
0.93
0.93
0.93
0.9
0.88
0.95
0.98
0.97
0.97
0.92
0.92
0.96
1.01
0.98
0.94
0.94
0.98
1.05
1.01
0.97
1.01
0.98
0.97
0.96
0.92
0.96
0.99
1.01
0.98
0.91
0.93
0.96
0.94
0.96
0.91
0.93
0.96
0.97
0.92
0.94
0.96
0.96
0.94
0.9
0.94
0.94
0.94
0.97
0.92
0.95
0.96
0.97
0.96
0.9
0.93
0.95
0.94
0.95
0.91
0.96
1.04
0.97
0.97
0.92
0.9
0.97
1.03
1.01
0.98
1.02
1.06
1.09
1.05
0.98
0.99
1.03
1.01
0.98
0.92
0.95
0.98
0.99
0.93
0.91
0.94
0.99
0.99
0.94
0.95
0.95
0.96
0.95
0.9
0.91
0.95
0.91
0.92
0.93
0.97
1.01
0.99
0.91
0.92
0.95
1
1.02
0.96
0.98
0.83
1.05
0.82
0.81
0.82
0.83
0.81
0.88
0.91
0.91
0.89
0.85
0.83
0.81
0.8
0.83
0.82
0.8
0.85
0.86
0.82
0.78
0.78
0.77
0.76
0.79
0.85
0.86
0.82
0.81
0.86
0.83
0.82
0.8
0.82
0.8
0.79
0.76
0.76
0.76
0.74
0.74
0.73
0.73
0.74
0.76
0.79
0.82
0.86
0.89
0.94
0.95
0.96
0.96
0.94
0.89
0.87
0.8
0.77
0.8
0.88
0.93
0.9
0.87
0.89
0.95
0.97
1.01
0.94
0.98
1.06
1.05
1.03
1.01
0.98
0.97
0.95
0.96
1.03
1.02
1
1.01
0.98
0.99
0.97
0.94
0.89
0.86
0.9
0.98
0.94
0.89
0.93
1
1.04
0.99
0.93
0.93
0.95
0.95
0.94
0.9
0.89
0.94
0.97
0.97
0.97
0.92
0.96
1.02
1.02
0.97
0.92
0.96
0.98
1
0.99
0.93
0.92
0.92
0.95
0.96
0.94
0.95
0.97
0.91
0.87
0.84
0.86
0.81
0.81
0.82
0.85
0.88
0.88
0.98
1.01
1.01
1.01
0.95
0.92
0.95
1.02
0.98
0.97
0.93
0.93
1
1.03
1
0.98
0.95
0.9
0.89
0.86
0.83
0.89
0.94
1.02
1.04
1.01
0.97
0.99
0.94
0.92
0.85
0.85
0.87
0.82
0.81
0.79
0.79
0.78
0.8
0.82
0.83
0.79
0.78
0.81
0.84
0.85
0.8
0.81
0.86
0.86
0.88
0.89
0.92
0.93
0.92
0.9
0.92
0.95
0.97
0.97
0.96
0.94
0.94
0.88
0.88
0.85
0.86
0.89
0.9
0.92
0.91
0.93
0.95
0.94
0.93
0.87
0.85
0.9
0.91
0.93
0.95
0.92
0.92
0.96
0.97
0.97
0.96
0.93
0.95
0.94
0.97
0.93
0.89
0.91
0.91
0.92
0.89
0.91
0.94
0.97
0.93
0.9
0.92
0.92
0.93
0.93
0.9
0.94
0.92
0.94
0.9
0.91
0.94
0.96
0.95
0.9
0.93
0.95
0.98
0.97
0.95
0.9
0.94
0.97
0.96
0.94
0.89
0.91
0.91
0.94
0.94
0.9
0.89
0.92
0.88
0.88
0.83
0.83
0.83
0.8
0.82
0.82
0.84
0.93
0.99
1
0.99
0.92
0.95
0.98
1
0.99
0.98
0.93
0.96
0.98
0.98
0.94
0.89
0.93
0.89
0.91
0.93
0.9
0.94
1.01
1.01
1.03
1.02
0.97
0.95
0.99
0.99
0.98
0.94
0.93
0.94
0.94
0.93
0.9
0.92
0.94
0.93
0.92
0.92
0.9
0.89
0.91
0.95
0.96
0.92
0.93
0.94
0.95
0.93
0.89
0.91
0.96
0.93
0.89
0.87
0.91
0.95
0.96
0.92
0.91
0.96
1.01
0.97
0.94
0.96
0.99
0.99
0.98
0.93
0.96
1
1
0.97
0.93
0.94
0.98
0.98
1
0.96
1
1.04
1
0.93
0.9
0.86
0.95
1.11
1.11
1
1.02
1.1
1.08
0.97
0.93
0.92
0.93
0.9
0.96
1.05
1.08
1.02
0.99
1.03
1.06
1.05
0.97
0.91
0.93
0.94
0.89
0.88
0.89
0.93
0.89
0.91
0.96
0.97
0.93
0.88
0.91
0.95
0.99
0.96
0.92
0.96
0.97
0.95
0.9
0.88
0.93
0.97
0.97
0.93
0.91
0.97
0.97
0.94
0.91
0.9
0.94
0.92
0.91
0.9
0.93
0.93
0.95
0.93
0.89
0.93
0.93
0.91
0.9
0.89
0.96
0.96
0.94
0.96
0.95
0.92
0.91
0.93
0.95
0.93
0.95
0.95
0.9
0.91
0.92
0.92
0.89
0.87
0.9
0.88
0.89
0.87
0.86
0.88
0.89
0.9
0.85
0.87
0.87
0.87
0.89
0.89
0.9
0.96
0.97
0.94
0.9
0.92
0.93
0.93
0.93
0.9
0.89
0.88
0.89
0.89
0.89
0.91
0.95
0.96
0.94
0.9
0.91
0.93
0.88
0.85
0.85
0.9
0.92
0.93
0.91
0.92
0.93
0.92
0.9
0.9
0.93
0.92
0.91
0.92
0.89
0.9
0.89
0.87
0.9
0.92
0.94
0.95
0.94
0.96
0.95
0.92
0.94
0.92
0.92
0.88
0.88
0.9
0.9
0.89
0.86
0.89
0.87
0.88
0.86
0.88
0.91
0.91
0.9
0.87
0.85
0.87
0.89
0.91
0.91
0.92
0.95
0.96
0.93
0.94
0.96
0.94
0.94
0.94
0.91
0.94
0.94
0.93
0.93
0.94
0.95
0.94
0.92
0.95
0.94
0.89
0.91
0.93
0.93
0.91
0.89
0.9
0.89
0.87
0.86
0.86
0.86
0.88
0.85
0.84
0.87
0.88
0.88
0.88
0.89
0.9
0.89
0.87
0.91
0.91
0.89
0.87
0.9
0.9
0.9
0.9
0.91
0.92
0.92
0.91
0.87
0.88
0.89
0.89
0.86
0.86
0.88
0.89
0.9
0.87
0.85
0.87
0.88
0.87
0.85
0.83
0.87
0.87
0.87
0.86
0.81
0.81
0.83
0.83
0.88
0.9
0.9
0.95
0.97
0.94
0.9
0.93
0.95
0.94
0.9
0.92
0.91
0.88
0.86
0.88
0.86
0.86
0.84
0.86
0.85
0.86
0.84
0.85
0.87
0.86
0.86
0.83
0.85
0.84
0.86
0.86
0.85
0.85
0.88
0.88
0.88
0.85
0.86
0.86
0.88
0.86
0.86
0.87
0.89
0.89
0.89
0.89
0.9
0.89
0.86
0.88
0.89
0.9
0.9
0.87
0.9
0.9
0.9
0.86
0.9
0.89
0.86
0.85
0.83
0.83
0.84
0.86
0.92
0.94
0.92
0.98
1.06
1.04
0.96
0.92
0.93
0.95
0.94
0.92
0.88
0.9
0.91
0.94
0.91
0.91
0.92
0.93
0.92
0.88
0.89
0.89
0.9
0.89
0.87
0.86
0.88
0.88
0.88
0.89
0.93
0.94
0.92
0.91
0.91
0.92
0.91
0.9
0.93
0.94
0.92
0.88
0.91
0.92
0.91
0.89
0.88
0.87
0.88
0.87
0.86
0.88
0.89
0.89
0.85
0.84
0.84
0.81
0.81
0.8
0.8
0.79
0.8
0.85
0.87
0.89
0.95
0.99
0.98
0.93
0.95
0.96
0.93
0.9
0.92
0.92
0.9
0.88
0.91
0.92
0.92
0.9
0.89
0.9
0.89
0.89
0.87
0.89
0.87
0.86
0.85
0.83
0.84
0.84
0.84
0.83
0.83
0.85
0.84
0.85
0.85
0.85
0.83
0.84
0.82
0.83
0.82
0.81
0.82
0.83
0.84
0.84
0.83
0.83
0.84
0.85
0.86
0.84
0.81
0.81
0.78
0.79
0.79
0.82
0.84
0.91
1.08
1.12
1.06
0.97
0.98
0.96
0.93
0.9
0.95
0.93
0.91
0.94
0.97
0.95
0.91
0.94
0.93
0.95
0.96
0.95
0.95
0.9
0.92
0.94
0.93
0.92
0.89
0.91
0.92
0.92
0.89
0.91
0.93
0.93
0.91
0.88
0.89
0.88
0.87
0.86
0.86
0.9
0.96
0.98
0.95
0.96
0.94
0.93
0.94
0.92
0.89
0.89
0.9
0.91
0.93
0.93
0.97
0.94
0.95
0.95
0.95
0.92
0.94
0.92
0.89
0.87
0.89
0.89
0.88
0.86
0.87
0.87
0.88
0.86
0.85
0.89
0.89
0.9
0.88
0.9
0.9
0.9
0.89
0.9
0.92
0.91
0.88
0.92
0.91
0.91
0.89
0.92
0.91
0.89
0.87
0.89
0.89
0.88
0.87
0.86
0.89
0.89
0.89
0.86
0.85
0.87
0.88
0.88
0.87
0.84
0.87
0.87
0.86
0.84
0.85
0.86
0.86
0.88
0.86
0.89
0.92
0.92
0.9
0.93
0.92
0.92
0.88
0.91
0.92
0.93
0.92
0.9
0.93
0.93
0.9
0.92
0.92
0.89
0.9
0.91
0.9
0.87
0.9
0.88
0.86
0.87
0.88
0.88
0.87
0.85
0.87
0.86
0.88
0.87
0.89
0.87
0.87
0.86
0.86
0.86
0.87
0.85
0.86
0.9
0.91
0.89
0.84
0.83
0.81
0.45
0.32
0.76
0.78
0.77
0.77
0.74
0.8
0.77
0.77
0.76
0.77
0.76
0.75
0.73
0.72
0.73
0.72
0.72
0.74
0.76
0.79
0.81
0.82
0.84
0.92
0.97
1
1.02
1.02
0.98
1.02
1.02
1.03
1
0.95
0.91
0.97
1.02
1.01
0.98
1.01
1.04
1.03
0.98
1
1.01
0.98
0.93
0.9
0.93
0.95
0.95
0.93
0.9
0.9
0.93
0.92
0.92
0.9
0.93
0.94
0.95
0.94
0.93
0.95
0.96
0.95
0.94
0.95
0.96
0.95
0.92
0.93
0.96
0.96
0.92
0.9
0.92
0.92
0.91
0.9
0.88
0.92
0.92
0.9
0.87
0.87
0.9
0.89
0.89
0.87
0.88
0.88
0.88
0.87
0.85
0.86
0.86
0.88
0.87
0.86
0.88
0.89
0.89
0.89
0.87
0.89
0.89
0.89
0.88
0.88
0.9
0.93
0.92
0.91
0.88
0.9
0.89
0.89
0.86
0.86
0.88
0.88
0.89
0.88
0.9
0.93
0.93
0.92
0.9
0.92
0.92
0.93
0.9
0.93
0.93
0.92
0.92
0.98
0.97
0.91
0.88
0.9
0.91
0.91
0.9
0.95
0.96
0.93
0.9
0.93
0.9
0.89
0.88
0.86
0.9
0.92
0.92
0.91
0.91
0.92
0.92
0.9
0.91
0.91
0.9
0.91
0.93
0.94
0.92
0.9
0.93
0.93
0.93
0.91
0.94
0.92
0.89
0.91
0.93
0.93
0.93
0.93
0.91
0.89
0.93
0.95
0.91
0.88
0.92
0.91
0.91
0.87
0.87
0.86
0.86
0.86
0.87
0.9
0.89
0.87
0.88
0.93
0.91
0.9
0.88
0.93
0.94
0.94
0.91
0.93
0.95
0.95
0.93
0.9
0.92
0.93
0.91
0.88
0.85
0.89
0.85
0.86
0.88
0.87
0.9
0.92
0.95
0.89
0.89
0.9
0.91
0.91
0.86
0.87
0.89
0.91
0.92
0.88
0.85
0.88
0.91
0.96
0.97
0.91
0.96
1.03
1.03
0.98
0.93
0.9
0.94
0.95
0.96
0.95
0.92
0.99
0.98
0.97
0.93
0.97
0.98
0.93
0.92
0.94
0.93
0.93
0.92
0.95
0.95
0.95
0.92
0.9
0.94
0.92
0.91
0.9
0.91
0.92
0.91
0.9
0.9
0.9
0.89
0.89
0.87
0.88
0.89
0.88
0.88
0.87
0.85
0.89
0.9
0.9
0.89
0.88
0.87
0.87
0.87
0.89
0.88
0.88
0.92
0.95
0.95
0.95
0.91
0.92
0.92
0.93
0.9
0.88
0.89
0.91
0.9
0.91
0.88
0.88
0.91
0.92
0.92
0.89
0.91
0.91
0.92
0.9
0.9
0.93
0.93
0.9
0.9
0.91
0.91
0.9
0.85
0.85
0.84
0.84
0.85
0.86
0.89
1.06
1.08
1.03
0.95
0.98
0.95
0.9
0.89
0.89
0.89
0.94
0.96
0.96
0.97
0.94
0.95
0.95
0.96
0.93
0.91
0.94
0.94
0.94
0.91
0.92
0.97
0.98
0.98
0.98
0.99
0.97
0.94
0.96
0.96
0.94
0.93
0.96
0.97
0.99
0.92
0.94
0.95
0.94
0.94
0.9
0.92
0.93
0.93
0.92
0.91
0.93
0.92
0.94
0.89
0.91
0.9
0.9
0.88
0.85
0.89
0.9
0.89
0.86
0.87
0.85
0.84
0.81
0.81
0.85
0.93
1.01
1.02
0.97
0.99
1.05
1.03
0.99
0.93
0.93
0.92
0.91
0.9
0.86
0.87
0.89
0.92
0.92
0.89
0.89
0.91
0.93
0.91
0.92
1.01
1.01
0.99
0.95
0.97
0.97
0.95
0.92
0.92
0.94
0.94
0.94
0.91
0.94
0.96
0.95
0.93
0.91
0.95
0.94
0.91
0.89
0.92
0.93
0.91
0.91
0.93
0.95
0.94
0.95
0.94
0.93
0.9
0.92
0.9
0.88
0.86
0.87
0.89
0.93
0.98
1.04
1.01
0.99
0.97
0.99
0.96
0.94
0.92
0.97
1.05
1.04
1.02
0.98
0.98
0.96
0.93
0.91
0.94
0.94
0.93
1
1
1
1
1.01
1.03
1.02
0.95
1.02
1.05
1.02
0.99
1.04
1.03
0.99
0.95
0.98
0.98
0.98
1
0.99
0.97
0.93
0.92
0.9
0.9
0.87
0.88
1.02
1.13
1.07
1
0.97
1.08
1.07
1
0.93
0.91
0.93
0.91
0.91
0.91
0.88
0.88
0.95
0.98
0.98
0.92
0.89
0.97
1.02
1.05
1.02
0.95
0.97
1
1
0.97
0.92
0.91
0.95
0.98
0.98
0.95
0.93
0.97
0.95
0.95
0.95
0.91
0.97
0.98
1
1.01
0.93
0.98
0.99
1
0.98
0.93
0.95
0.95
0.94
0.93
0.94
0.99
1.02
0.99
0.97
0.97
0.99
0.97
0.96
0.99
1.01
1
0.98
0.96
0.95
0.96
0.94
0.91
0.88
0.9
0.93
0.99
0.95
0.98
1.07
1.12
1.05
1.03
0.94
0.98
0.99
1
0.98
0.91
0.96
0.96
0.97
0.96
0.92
0.93
0.95
0.96
0.95
0.94
0.93
0.99
1.01
1.01
0.96
0.97
0.99
0.99
1
0.98
1.01
1
0.97
0.96
0.94
0.93
0.96
0.96
0.95
0.94
0.96
0.97
0.97
0.92
0.96
0.95
0.95
0.91
0.93
0.92
0.92
0.89
0.88
0.91
0.91
0.89
0.87
0.85
0.85
0.85
0.86
0.85
0.85
0.88
0.87
0.86
0.84
0.86
0.89
0.95
0.95
0.93
1.03
1.04
1.01
0.94
0.91
0.93
0.91
0.88
0.89
0.93
0.98
0.97
0.93
0.91
0.93
0.93
0.94
0.91
0.9
0.88
0.84
0.83
0.84
0.84
0.82
0.78
0.82
0.81
0.87
0.92
0.96
0.92
0.95
0.96
1.01
1.02
0.94
0.91
0.96
0.99
1.01
1.03
0.97
0.96
1
1.04
1.05
1.03
1.01
0.99
0.94
0.95
0.97
1.01
1.01
0.99
0.92
0.97
0.99
1.01
0.99
0.93
0.9
0.94
0.98
1.02
1
0.95
0.92
0.94
0.98
1
1
0.95
0.99
1
1.02
1.03
0.97
0.94
1.02
1.06
1.05
0.96
0.95
0.92
0.92
0.91
0.95
1.06
1.11
1.07
0.97
0.97
1.06
1.1
1.06
0.98
1.02
1.02
0.99
1
0.95
0.93
0.98
0.99
0.98
0.96
0.9
0.95
0.99
1
0.96
0.96
1.01
1.03
0.99
0.94
0.96
0.98
0.98
0.95
0.95
0.92
0.94
0.99
1.01
1
0.94
0.94
0.98
1.01
0.97
0.93
0.95
0.96
0.97
0.95
0.92
0.97
1
0.98
0.97
0.94
0.99
1.06
1.03
0.98
0.94
0.92
0.96
0.97
0.98
0.98
0.94
1
1.03
1.02
1.02
0.97
0.95
0.95
0.96
0.92
0.96
0.99
1.04
0.98
1.02
1.02
1.02
0.94
0.9
0.91
0.9
0.89
0.86
0.84
0.85
0.87
0.88
0.9
0.86
0.84
0.85
0.91
0.95
0.93
1.04
1.22
1.15
1.08
0.99
0.98
1
1.04
1.05
1.05
0.99
0.96
1.01
1.07
1.07
1.07
1
1.03
1.08
1.06
1.02
0.98
0.94
0.98
1.01
1.02
0.97
0.94
0.97
1
1.01
0.97
0.94
0.97
1
0.99
0.94
0.92
0.97
1
1.01
0.96
0.93
0.99
1.01
1.02
0.97
0.98
0.98
0.96
0.98
0.93
0.98
0.99
1.01
0.98
0.95
1
1.01
1
0.99
0.94
0.95
0.97
1
0.96
0.93
0.95
0.96
0.98
0.94
0.9
0.95
0.96
0.96
0.94
1.02
1.08
1.07
0.99
0.96
1.03
1.07
1.01
0.96
1.02
1.05
1.05
1.04
0.95
0.94
0.96
0.97
0.94
0.91
0.94
0.95
0.93
0.91
0.89
0.92
0.96
0.96
0.92
0.95
1.01
1.02
1.01
0.99
0.94
0.99
1.02
1.01
1.02
0.95
0.97
1.01
1.03
1
0.96
0.96
0.99
1.01
0.99
0.98
1
1.04
1.06
1.01
0.95
0.99
0.98
0.97
0.91
0.89
0.91
1
1.08
1.11
1.04
1.19
1.29
1.19
1.11
0.98
1
1.07
1.09
1.06
0.98
1
1.05
1.1
1.07
0.99
1.01
0.98
0.99
0.99
0.94
1.04
1.16
1.16
1.12
1.05
0.96
1.01
1.04
1.06
1.05
0.96
0.96
1.01
1.02
1
0.96
0.93
0.95
1
1.01
1.01
0.95
0.96
0.98
0.97
0.95
0.92
0.92
0.98
1.01
0.99
0.94
0.92
0.98
0.98
0.97
0.95
0.91
0.96
0.97
0.97
0.92
0.96
0.96
1
0.97
0.93
0.91
0.94
0.96
0.9
0.92
1.03
1.32
1.26
1.12
1.25
1.22
1.13
1.01
0.96
1.02
1.08
1.07
1.06
1
1.05
1.09
1.07
1.02
0.98
1.02
1.08
1.04
1.01
0.95
1.01
1.03
1.07
1.06
0.97
0.98
1.02
1.03
1.01
0.95
0.93
0.97
1.01
1.01
0.96
0.95
0.98
1.01
0.97
0.92
0.95
0.96
0.99
1.01
0.95
0.94
0.96
0.97
0.96
0.93
0.94
0.98
0.98
0.99
1
0.94
0.99
1.05
1.06
1
0.97
1.05
1.07
1.03
0.95
0.93
0.98
1
1
0.98
0.95
1.03
1.08
1.07
1.01
0.95
0.99
1.04
1.07
1.04
0.97
0.99
1.03
1.03
1.01
0.94
0.96
0.96
0.96
0.95
0.9
0.93
0.95
0.97
0.94
0.92
0.96
0.99
0.98
0.97
0.92
0.92
0.95
0.99
0.98
0.95
0.92
0.94
0.97
0.99
0.93
0.92
0.98
1.03
1.03
0.97
0.99
1.02
1.03
0.99
0.98
0.92
0.97
1.01
0.99
0.95
0.91
0.97
1
0.99
0.96
0.93
0.92
0.98
1.01
1.02
0.98
1.03
1.11
1.09
1.03
0.96
0.97
1.01
1.04
1.04
0.99
0.96
1.04
1.08
1.06
1.01
0.95
1
1.03
1.01
0.99
0.94
0.99
1.05
1.05
1.04
0.95
0.96
1.03
1.07
1.03
0.97
0.95
1.01
1.05
1.01
0.98
0.93
0.88
0.9
0.93
0.98
1
1.14
1.25
1.17
1.1
0.98
0.99
1.03
1.03
1.01
0.95
0.96
1.03
1.03
1.02
0.97
0.97
1.01
1.04
1.02
0.94
0.92
0.96
1.01
1
0.97
0.92
0.91
0.89
0.89
0.87
0.87
0.88
0.95
1.05
0.95
0.99
0.94
1.02
1.32
1.16
1.09
1.04
0.97
1
1.07
1.09
1.08
1.04
1.03
0.97
1
1.02
1.03
1.01
1
0.97
1.02
1.03
1.02
1.01
0.96
0.95
0.96
0.97
0.96
0.93
0.91
0.97
1
1.01
0.99
0.93
0.91
0.96
1.02
1.01
0.96
1
1.01
1.02
0.96
0.96
1
1.01
0.99
0.92
0.96
0.98
1.01
0.99
0.94
0.93
0.97
1
0.96
0.91
0.93
0.96
0.96
0.98
0.92
0.98
1.02
1.05
1.01
0.95
0.98
1.04
1.04
1.02
0.95
1
1.05
1.06
1.01
0.93
0.97
1
0.99
1
0.95
0.94
0.98
1.01
0.99
0.96
0.99
1.02
1
1
0.92
0.93
0.98
1.03
1.05
0.96
0.97
1.02
1.06
1.03
0.94
0.98
1
0.98
0.95
0.9
0.94
0.97
0.98
0.99
0.95
0.94
0.99
1
0.99
0.93
0.9
0.95
0.95
0.96
0.9
0.93
0.96
0.98
0.97
0.9
0.93
0.94
0.96
0.92
0.93
0.96
0.96
0.95
0.91
0.85
0.86
0.9
0.94
0.96
1.01
1.04
0.93
0.88
0.94
1.1
1.21
1.19
1.16
1.05
1.08
1.12
1.08
1.09
1.07
1.03
0.97
0.99
1.05
1.06
1.05
0.99
0.94
1.01
1.04
1.03
0.99
0.97
1.01
1.04
1.04
1.02
0.95
0.99
1.03
1.04
0.98
0.93
0.99
1.01
1.01
0.94
0.86
0.84
0.84
0.86
0.84
0.84
0.87
0.85
0.92
1.07
1.08
0.97
1.09
1.14
1.14
1.09
0.99
1
1
1.04
1.02
0.98
0.98
1.05
1.09
1.05
1.02
0.95
0.96
0.98
0.99
1.01
1
0.95
1.02
1.06
1.06
1.02
0.95
0.95
1
1.03
1.04
1
1.01
1.02
1.03
0.99
0.94
0.98
1.03
1.07
1.04
0.98
1.04
1.1
1.08
1.04
0.96
0.95
1
1.03
1.04
0.99
0.96
0.99
1.06
1.08
1.04
0.97
1.02
1.05
1.07
1.04
0.97
0.99
1.02
1.04
1.04
0.97
0.97
0.99
1
0.98
0.94
0.97
0.99
1.04
1.04
0.98
0.97
1.02
1.04
1.05
1.01
0.96
0.98
1.01
1.01
1.01
0.98
0.95
1.02
1.05
1.03
1.01
0.95
0.94
0.96
0.97
0.93
0.98
1.09
1.1
1.09
1
1.02
1.06
1.07
1.01
0.94
0.97
1
1.01
0.95
0.98
1.02
1.03
1.04
0.96
0.97
0.99
1.01
0.97
0.95
0.96
0.94
0.93
0.9
0.9
0.94
1
1.05
1.05
0.97
1.03
1.02
1
1
0.94
0.97
1.02
1.06
1.04
0.98
0.94
0.98
1
0.99
0.98
0.94
0.95
1.01
1.02
1
0.96
0.98
1.02
1.04
1.05
1.04
0.97
0.99
1.03
1.02
1.02
0.96
1
1.03
1.02
0.99
0.94
0.96
0.99
1.01
1.01
0.96
0.99
1
1.03
1
0.94
0.97
0.99
1
0.96
0.96
1
1.02
1
0.97
0.95
1.03
1.08
1.05
1
0.94
0.98
1.01
1.01
1
0.93
0.88
0.93
0.98
1
0.99
0.96
1.01
1.04
1.05
1.03
0.98
0.98
1.02
1.02
1.01
0.95
0.97
0.97
1
1.01
0.97
0.96
1.04
1.05
1.03
0.99
0.95
0.98
0.99
0.99
0.94
0.91
0.93
0.95
0.97
0.97
0.95
0.92
0.98
1.03
1.01
1
0.96
1
1.05
1.08
1.04
0.98
1.02
1.04
1.06
1.01
0.95
0.97
0.98
1
1
0.95
0.97
1.02
1.02
0.99
0.95
0.95
0.99
1.02
1.03
1.01
0.96
0.94
1
1.02
1.04
1.01
0.95
0.99
1.03
1.03
1.05
0.98
0.96
0.97
0.98
0.97
0.94
0.91
0.96
0.97
0.97
0.96
0.93
0.99
1
1
0.97
0.91
0.92
0.94
0.98
0.98
0.95
0.99
1.05
1.08
1.03
0.97
1.01
1.02
1.02
1.02
0.99
0.94
0.99
1.01
1.01
1.01
0.95
0.99
1.01
1.02
1
0.93
0.95
0.98
0.99
0.99
0.95
0.96
1.01
1.01
0.99
0.93
0.94
0.98
0.99
0.99
0.93
0.94
0.97
0.99
0.98
0.93
0.93
0.95
1
1.03
1.01
0.94
1.01
1.05
1.07
1.04
0.98
1.02
1.05
1.05
0.98
0.93
0.96
0.98
1.01
1.01
0.97
1
1.04
1.07
1.03
0.96
1.01
1.02
1.02
1
0.94
0.95
0.99
0.97
1
0.97
1
1.03
1.06
1.03
0.96
0.98
1.02
1.02
1.01
0.96
0.99
0.98
1.02
1
0.96
0.98
1
1.01
1
0.94
0.95
0.97
0.99
0.97
0.93
0.91
0.96
1
1
0.97
0.96
1.02
1.06
1.07
1.01
0.97
1.01
1.04
1.05
1.01
0.97
1
1.02
1.01
1.01
0.95
0.94
0.96
0.97
0.94
0.92
0.97
1.02
1.04
1.01
0.94
0.95
0.97
1
0.99
0.94
0.92
0.97
1.03
1.03
1.04
1
1.09
1.15
1.09
1.03
0.95
0.99
1
1.02
0.99
0.94
0.96
1.01
1
1
0.96
0.95
1
1.01
1
0.96
0.92
0.97
1.01
1
0.96
0.94
0.99
1
0.99
0.96
0.92
0.94
0.98
0.99
0.97
0.95
0.97
1.03
1.03
1.03
0.98
0.98
1.01
1.03
1
0.95
0.93
0.97
0.99
0.97
0.96
0.92
0.95
0.96
0.98
0.97
0.93
0.94
0.96
0.98
1
0.97
1.01
1.04
1.06
1.02
0.95
0.99
1.01
1.03
1.02
0.94
0.97
1.01
1.01
0.97
0.99
1.03
1.04
1.02
0.97
0.98
1.01
1.04
1.02
0.97
0.93
0.98
1.03
1.02
1
0.94
0.97
1.01
1.02
1
0.94
0.97
1
1
1
0.93
0.92
0.95
0.99
0.97
0.95
0.99
1.02
1.02
1.01
0.96
0.99
1.01
1
1
0.95
0.98
0.99
0.98
0.98
0.93
0.94
0.96
0.95
0.95
0.92
0.95
1
1.03
1
0.96
1.01
1.04
1.04
0.97
0.94
0.98
1.02
1.05
1.02
1.08
1.18
1.17
1.1
1.01
1.06
1.12
1.09
1.01
1.01
1
1.03
1.01
0.99
1.03
1.06
1.04
1.03
0.97
1.01
1.03
1.04
1.01
0.94
0.97
1.02
1.02
1
0.95
0.97
1.01
1.01
0.99
0.95
1
1.03
1.04
1.01
0.96
1
1.01
0.98
0.94
0.94
0.99
1
0.96
0.93
0.97
1.03
1.09
1.04
0.95
0.98
1.04
1.05
1.03
0.98
1.01
1.01
1.04
1.01
0.94
0.94
0.96
0.98
0.96
0.94
0.99
1.06
1.07
1.01
0.94
0.99
1.01
1.02
1.01
0.94
0.99
1.04
1.03
0.99
0.94
0.98
1
1
0.99
0.94
0.99
1.01
0.99
0.96
0.92
0.98
1
1.03
1.01
0.94
0.96
0.98
1.02
0.99
0.99
0.95
1
1.07
1.09
1.1
1.03
1.04
1.11
1.09
0.97
0.93
0.95
1.03
1.12
1.1
1.01
1.02
1.08
1.08
0.98
0.95
1
1.03
1.03
0.98
0.94
1.02
1.06
1.05
1.01
0.97
1.03
1.05
1.05
0.97
0.99
1
1.04
1.01
0.95
0.96
1
1.02
0.97
0.9
0.92
0.93
1
1.02
1.02
0.99
1.11
1.09
1.08
0.97
0.95
0.99
1.08
1.08
1.03
1.1
1.1
1.12
1.06
0.97
0.98
1.08
1.09
1.01
0.96
1.07
1.1
1.08
1.03
0.95
0.97
1.02
1.04
1.02
0.96
1.02
1.08
1.08
1.06
0.95
0.95
1
1.12
1.1
1.06
1.12
1.18
1.16
1.06
0.98
1.04
1.08
1.09
1.03
0.95
1
1.01
1.01
0.99
0.97
0.93
0.96
0.99
1.04
1.02
0.98
0.98
1
1
0.99
0.97
1.02
1.05
1.04
1.03
0.97
0.95
1.01
1.04
1.01
0.99
1.07
1.1
1.05
0.99
0.95
1
1.02
0.98
0.99
0.96
1.01
1.05
1.05
1.01
0.96
1
1.07
1.09
1.04
0.98
0.96
0.98
0.99
1
0.94
0.95
1
1.03
1.05
0.98
1.01
1.01
1.09
1.06
1.01
1.03
1.08
1.08
1.05
0.98
0.98
1.01
1.03
1.02
0.95
0.97
1.01
1.02
1.03
0.99
1.01
1.04
1.07
1.03
0.97
0.99
1
1.01
1.02
0.98
0.94
1.03
1.05
1.02
1.03
0.97
0.99
1.03
1.04
1.02
0.97
0.98
1.02
1.03
0.97
0.93
0.96
1.01
1.01
0.94
1
1.03
1.03
0.98
0.92
0.95
0.98
0.98
0.96
0.92
0.97
0.96
0.98
0.95
0.96
1.02
1.08
1.1
1.01
1.09
1.14
1.14
1.06
1
1.04
1.07
1.02
1.01
0.96
0.98
1.04
1.06
1.02
0.93
0.97
1.01
1.05
0.99
0.98
1.01
0.99
0.99
0.98
0.93
0.96
0.97
0.98
0.98
0.94
0.99
1.02
1.04
0.99
0.95
0.97
1.01
1.02
1.01
0.97
0.99
1.02
1.04
1.04
0.98
0.98
1.06
1.07
1.04
0.96
0.95
1.01
1.05
1.03
0.97
1.02
1.15
1.14
1.07
1
1.03
1.06
1.04
1
0.94
0.99
1.02
1.05
1.05
0.99
0.98
1.02
1.03
1.01
0.96
1
1.06
1.04
1.03
0.97
1.02
1.05
1.06
1.04
0.94
0.98
0.97
0.98
0.99
0.96
1.01
1.01
1.03
1.01
0.96
0.93
0.98
0.99
0.98
0.97
0.93
0.97
0.98
0.99
0.95
0.93
0.96
0.98
1
0.95
0.95
1
1.07
1.12
1.02
0.94
0.86
0.86
0.86
0.89
1.02
1.05
0.99
1.1
1.03
0.92
0.91
0.89
0.89
0.98
1.1
1.11
1.1
1.05
1.13
1.16
1.12
1.08
1.06
1.07
1.03
0.98
1.01
1.03
1.04
1.02
0.95
0.98
1
1.03
1.04
0.99
0.93
0.92
0.94
0.99
0.96
1.02
1.15
1.19
1.1
1.02
1.07
1.08
1
0.92
0.96
0.99
1
0.99
0.95
1.03
1.1
1.11
1.05
0.96
0.99
1.06
1.06
1.02
0.94
0.98
1.01
1.04
1
0.95
0.98
1.03
1.08
0.97
0.95
0.99
1.01
1
0.97
1.03
1.15
1.18
1.14
1.01
1.04
1.05
1.07
1.02
0.96
1.01
1.04
1.02
0.96
0.99
1.02
1.05
1.01
0.98
1.01
1.06
1.06
1.02
0.96
1.01
1.04
1.08
1.04
1.02
0.99
1.05
1.11
1.08
1.05
0.95
0.96
1.02
1.04
1.04
0.98
0.97
1.01
1.06
1.06
1
1.09
1.09
1
0.92
0.94
0.96
0.98
0.97
0.95
1.03
1.07
1.08
1.01
0.93
0.97
0.99
1.01
0.98
0.94
0.99
1.05
1.06
1.03
0.95
0.99
1.04
1.04
1.04
1.01
0.97
1.03
1.08
1.05
0.99
0.95
0.99
1.04
1.05
1.05
0.97
0.98
1
1.02
1.01
0.95
0.99
1.04
1.04
1.02
0.97
1.04
1.04
1.02
0.93
0.92
1
1.06
1.08
0.99
0.95
0.98
0.99
0.98
0.95
0.91
0.96
1.01
0.98
0.94
0.91
0.98
1.01
1.01
0.98
0.92
0.96
1.02
0.99
0.99
0.92
0.96
1.01
1.03
1.01
0.99
0.94
0.96
1
1.04
1.04
1
0.99
1.07
1.09
1.05
0.99
1.01
1.03
1.03
1.02
0.95
0.98
1.01
1.01
1.03
0.94
0.96
1.02
1.05
1.03
0.96
0.98
0.99
1.01
1
0.94
0.96
0.99
1.01
0.96
0.92
0.95
0.97
0.97
0.99
0.96
0.96
1
1
0.99
0.94
0.96
0.97
0.94
0.88
0.85
0.89
0.92
0.92
0.88
0.89
0.87
0.89
0.87
0.86
0.9
0.99
1.06
1.12
1.09
1.01
1.06
1.08
1.06
1.02
0.95
0.99
1.03
1.02
1.02
0.99
0.95
1.01
1.07
1.04
0.98
0.94
0.96
1.02
1.03
1.01
0.95
0.94
0.9
0.87
0.83
0.84
0.82
0.83
0.8
0.87
0.88
0.89
0.85
0.86
0.87
0.81
0.81
0.83
0.81
0.81
0.82
0.82
0.81
0.8
0.78
0.77
0.76
0.75
0.74
0.72
0.71
0.71
0.69
0.7
0.69
0.68
0.69
0.69
0.7
0.7
0.72
0.73
0.78
0.85
0.91
0.97
1.01
1.06
1.03
1.03
0.98
0.96
1.01
1.03
0.95
0.87
0.82
0.8
0.8
0.82
0.88
1.23
1.24
1.21
1.08
0.99
1.1
1.16
1.09
1.05
0.98
1.06
1.16
1.18
1.1
1
1.04
1.1
1.09
1.02
1
1.12
1.18
1.16
1.07
1
1.06
1.09
1.08
0.97
1.05
1.11
1.09
1
1.02
1.07
1.08
1.02
0.93
0.99
1
0.91
0.95
0.95
1.33
1.32
1.26
1.01
1.02
1.08
1.08
1.06
0.98
1.01
1.07
1.06
1.02
0.98
0.92
0.95
1.04
1.11
1.1
1.08
1.02
1.14
1.16
1.14
1.08
1.02
1.06
1.14
1.12
1.09
1.01
1.07
1.09
1.09
1.04
0.96
1
1.05
1.09
1.08
0.99
1.06
1.1
1.08
0.98
1.01
1.06
1.08
1
1.03
1.08
1.07
1.02
0.96
0.96
0.97
0.93
0.93
1.11
1.15
1.09
1.02
1.09
1.12
1.08
0.99
1
0.99
0.99
0.91
0.89
0.93
0.93
1.12
1.29
1.29
1.11
1.03
1.13
1.15
1.13
1.03
1.09
1.13
1.17
1.01
0.93
0.97
1.28
1.24
1.2
1.09
1.23
1.21
1.15
1.04
1.01
1.09
1.12
1.04
0.93
0.92
0.93
0.94
0.93
1.17
1.46
1.29
1.11
0.99
1.11
1.21
1.16
1.03
1.02
1.13
1.17
1.1
1.01
1.05
1.11
1.09
1.04
0.98
1.04
1.08
1.08
1.06
0.98
0.95
0.96
0.93
0.92
1.08
1.21
1.15
1.08
1.2
1.18
1.16
1.03
1.04
1.1
1.06
1
0.96
0.99
1.05
1.08
1.02
0.97
1.07
1.11
1.04
0.99
0.98
1.11
1.12
1.08
0.98
0.98
1.06
1.12
1.08
1
1.03
1.08
1.06
1.03
0.99
1.06
1.16
1.1
0.99
1.01
1.07
1.08
1.09
1.02
1.05
1.1
1.1
1.05
0.98
1.05
1.09
1.08
1.01
0.95
1.05
1.14
1.08
0.97
0.9
0.92
0.94
0.97
0.98
0.95
1.1
1.19
1.15
1.06
0.95
1.02
1.06
1.04
1.01
0.98
1.08
1.13
1.11
1.05
0.97
1.03
1.12
1.08
1.08
1.01
1.12
1.24
1.16
1.02
1.06
1.15
1.16
1.07
0.99
1.07
1.11
1.1
1.01
0.98
0.95
0.92
0.92
1.03
1.09
1.01
0.98
0.95
0.93
1.03
1.16
1.09
1.03
1.23
1.22
1.12
1.05
0.97
1.03
1.1
1.11
1.1
1.03
1.1
1.14
1.12
1.05
0.98
1.03
1.06
1.06
1.01
1.08
1.1
1.07
0.99
1.01
1.02
1.03
0.99
0.96
0.99
1.06
1.11
1.09
1
1.02
1.14
1.11
1.05
0.97
1.03
1.1
1.07
0.98
1.02
1.06
1.08
1.03
0.96
1.05
1.14
1.15
1.05
1.03
1.09
1.09
1.06
0.99
1.01
1
1.11
1.05
0.95
1.02
1.03
0.99
0.95
0.98
1.02
1.09
1.09
1
1
1.08
1.07
1.06
1
1.07
1.11
1.08
1.05
0.99
1.04
1.1
1.1
1.05
0.98
1.02
1.07
1.08
1.04
1.02
1.07
1.07
1.06
0.99
1.02
1.05
1.06
1
0.96
1
1.03
1.01
1
0.96
1.02
1.08
1.06
1.02
1.04
1.1
1.1
1.08
1.02
1.08
1.14
1.1
1
1.03
1.05
1.04
0.97
0.98
1.03
1.05
1.05
1.01
1.04
1.06
1.06
1.02
0.96
0.99
1.01
1.02
0.96
0.97
1.02
1.05
1.02
0.97
0.98
1.03
1.07
1.02
0.97
1.02
1.03
1.02
0.98
0.96
1
1.06
1.05
1.02
0.98
1.02
1.07
1.07
1.04
0.98
1.04
1.09
1.1
1.05
0.98
1.03
1.08
1.08
1.03
0.95
0.99
1.09
1.12
1.05
1.03
1.14
1.09
1.04
0.97
1.01
1.05
1.07
1
0.98
1.02
1.08
1.11
1.08
1.01
1.06
1.06
1.02
0.97
1.02
1.08
1.1
1.05
0.96
1.01
1.03
1.02
0.97
0.98
1.02
1.04
0.98
0.93
0.97
1.05
1.05
1.04
0.99
1.05
1.12
1.08
1.02
0.97
1.04
1.07
1.08
1.06
1.01
1.05
1.04
1.02
1
0.98
1.12
1.16
1.13
1.04
1
1.06
1.08
1.05
0.98
1
1.03
1.03
1.03
0.98
1.03
1.07
1.07
1.05
0.98
1.02
1.04
1.04
0.97
0.98
1.01
1.05
0.99
0.99
1.05
1.07
1.03
0.98
0.98
1.02
1.02
0.99
0.96
1.02
1.17
1.19
1.1
1.11
1.23
1.18
1.1
1.01
1.05
1.08
1.04
0.99
1.05
1.11
1.09
1.04
0.98
1.06
1.07
1.03
0.98
1
1.06
1.09
1.01
0.97
1.03
1.05
1.04
0.99
0.99
1.05
1.02
1.01
0.95
0.99
1.03
1.06
1.02
0.98
1.02
1.04
1.04
1.02
0.95
0.98
0.99
1.03
0.99
0.98
1.05
1.04
1.01
0.95
0.98
0.99
1.01
1
0.97
1.01
1.04
1.03
0.98
1.02
1.05
1.03
0.97
1.01
1.04
1.03
1.02
0.97
0.98
1.02
1.02
1
0.98
1.04
1.04
1.05
0.95
0.98
1.01
1.02
0.99
0.96
1.03
1.07
1.07
1.03
0.99
1.02
1.02
1.02
0.97
0.94
1.01
1.04
1.07
1.04
1.02
0.97
0.96
0.91
0.91
0.97
0.94
0.88
0.92
0.89
0.92
0.93
0.89
0.88
0.88
0.86
0.88
0.89
0.86
0.93
1.01
1.12
1.13
1.14
1.13
1.08
1.04
0.95
0.95
1.08
1.16
1.14
1.07
1.06
1.04
1
1.03
1.07
1.08
1.03
1.03
1.05
1.05
1.03
1.09
1.14
1.13
1.05
1
0.96
0.99
1.07
1.08
1.08
0.99
1.07
1.08
1.07
1.04
0.98
1.06
1.1
1.06
1.08
1.02
1.11
1.16
1.12
1.03
1.05
1.07
1.05
1
0.98
1.01
1.08
1.06
0.99
1
1.06
1.09
1.08
1.01
1.04
1.1
1.05
0.97
0.95
1.02
1.14
1.08
0.97
1.03
1.08
1.05
1.01
0.98
1.05
1.09
1.06
1.01
0.96
1.02
1.06
1.08
1.03
0.99
1.06
1.1
1.1
1.01
1.03
1.09
1.09
1.06
0.98
1.04
1.08
1.1
1.04
0.99
1.06
1.13
1.15
1.09
1
1.16
1.15
1.1
1.06
0.97
1
1.05
1.12
1.11
1.02
1.39
1.23
1.11
1.01
1.06
1.09
1.08
1.02
0.99
1.04
1.05
1.03
1
1.04
1.04
1.01
0.95
0.97
1.03
1.09
1.1
1.02
1.08
1.09
1.06
0.97
1.03
1.1
1.11
1.02
1.02
1.05
1.07
1.04
0.99
1.08
1.08
1.02
0.96
0.98
1.04
1.04
1.03
0.95
1.02
1.14
1.12
1.05
0.95
0.98
1.02
1.08
1.06
1
1.04
1.11
1.06
1
1.16
1.34
1.22
1.04
1.1
1.17
1.17
1.04
0.96
1.03
1.16
1.2
1.14
1.03
1.12
1.13
1.11
1.05
0.98
1.06
1.17
1.16
1.07
1.11
1.13
1.11
1.03
0.98
1.05
1.1
1.12
1.07
1
1.09
1.11
1.05
1.03
0.97
0.95
0.96
0.95
0.91
0.89
0.92
0.97
0.95
0.95
1.09
1.24
1.16
1.07
1.1
1.22
1.14
1.04
0.97
1.02
1.13
1.17
1.13
1.06
0.99
1.04
1.08
1.07
1.02
0.98
1.06
1.08
1.03
0.97
1
1.05
1.05
1.03
0.97
1.03
1.07
1.09
1.02
0.95
1
1.03
1.03
0.99
0.96
1.01
0.97
0.95
0.94
1.07
1.32
1.17
1.06
1.14
1.22
1.19
1.05
1.03
1.05
1.04
1
1.01
1.09
1.04
0.99
0.96
1.03
1.07
1.09
1.03
0.92
0.93
0.96
0.95
0.92
0.98
0.97
0.89
0.9
1.02
1.23
1.18
1.07
1.04
1.06
1.09
1.06
0.99
1.03
1.14
1.16
1.13
1.05
1.05
1.11
1.11
1.06
0.98
0.95
0.99
1.04
1.04
0.98
1.05
1.12
1.1
1.07
0.99
1.06
1.05
1.03
0.97
0.99
1.03
1.02
0.99
1
1.06
1.12
1.06
0.98
1.05
1.1
1.05
1.02
0.97
1.06
1.05
1.03
0.99
0.98
1.08
1.1
1.07
1.01
1.03
1.1
1.09
1.04
0.99
1.04
1.1
1.13
0.98
0.98
1.07
1.14
1.12
1.05
1.14
1.17
1.12
1
1
1.04
1.05
1
0.96
1.01
1.07
1.09
1.02
0.95
0.9
0.96
1.09
1.07
1.07
0.97
1.01
1.06
1.04
1.04
0.97
1.01
1.07
1.03
0.96
1.01
1.02
1.05
1.08
1
1.05
1.18
1.2
1.13
1.06
1.19
1.19
1.12
1
1.07
1.18
1.14
1.08
1
1.05
1.15
1.16
1.11
1
1.02
1.09
1.11
1.06
1.01
1.1
1.13
1.07
1
1.03
1.08
1.08
1.02
1.04
1.13
1.11
0.97
0.91
0.93
1.02
0.98
0.93
0.91
1.05
1.04
0.94
0.96
0.96
0.91
0.86
0.84
0.82
0.82
0.79
0.8
0.8
0.8
0.81
0.79
0.8
0.74
0.81
0.74
0.74
0.75
0.72
0.71
0.7
0.69
0.7
0.69
0.7
0.7
0.72
0.73
0.74
0.77
0.78
0.79
0.84
0.87
0.89
0.89
0.92
0.94
0.97
1.01
0.97
1.02
1.09
1.12
1.1
1.05
1.06
1.08
1.05
0.98
0.99
1.07
1.1
1.03
0.95
0.91
0.96
0.97
0.91
0.97
1.05
1.11
0.97
1.05
1.25
1.2
1.07
0.97
1.06
1.06
1.04
0.99
1.06
1.15
1.15
1.12
1.05
0.99
1.09
1.11
1.06
1.07
1
1.08
1.16
1.15
1.07
0.98
0.98
0.99
0.96
0.91
0.89
0.95
0.99
0.99
0.92
0.92
0.97
0.91
1
1.12
1.11
1.02
1.04
1.07
0.98
0.91
0.88
0.91
0.95
0.93
0.91
0.92
1.03
1.12
1.12
1.13
1
1.05
1.09
1.07
1.06
1.03
0.97
1.04
1.08
1.09
1.07
0.98
0.96
0.96
0.97
0.93
0.92
0.99
1.14
1.12
1.12
1.01
1.05
1.1
1.1
1.06
0.97
1.01
1.03
1.03
1.02
0.99
1.07
1.1
1.1
0.96
0.9
0.92
0.97
1.1
1.08
1
1.12
1.22
1.06
0.98
1
1.05
1.08
1.06
0.99
1.09
1.14
1.16
1.05
0.94
0.94
0.93
0.94
0.93
1.02
1.59
1.2
1.08
1
1.11
1.11
1.03
0.98
0.98
1.05
1.05
1.06
1.04
0.98
0.95
1.03
1.07
1.04
1.01
0.98
1.05
1.04
1.04
0.97
0.93
0.97
1.01
1.04
1.01
0.97
1.03
1.08
1.06
0.99
1.02
1.02
1
0.98
0.94
0.94
0.94
0.94
0.95
1.06
1.11
1.03
0.99
1.18
1.2
1.08
0.97
1
1.04
1.03
1.01
0.97
0.98
1.02
1.06
1
0.95
1
1.05
1.06
1.04
0.98
1.04
1.07
1.04
1.02
0.97
1.03
1.09
1.08
1.05
0.99
0.98
1.03
1.06
1.02
0.99
0.95
1.01
1.09
1.08
1.08
1.02
1
1.04
1.02
0.98
0.94
1.01
1.03
1.01
0.96
0.93
0.99
1
0.98
0.95
0.99
1
1
0.96
0.92
0.94
1
1.08
1.1
1.07
1.01
1.07
1.11
1.09
1.01
0.94
0.96
1.01
1.11
1.07
1.01
1.04
1.05
1.11
1.06
0.99
1.07
1.18
1.12
1.07
0.98
1.04
1.06
1.07
1.03
0.96
0.99
1
1.03
1
0.95
0.95
0.97
0.99
1.02
0.97
1
1.07
1.06
1.01
0.95
0.99
1
1.03
1
0.93
0.96
0.98
1.08
1.12
1.05
1.09
1.2
1.14
1.01
1.05
1.07
1.08
1.02
0.96
1.03
1.06
1.07
1.02
0.97
1.03
1.06
1.07
1.02
0.95
1.04
1.11
1.09
1.11
1.08
0.92
0.89
0.93
0.99
1.06
0.97
1.02
1.15
1.24
1.11
1.01
1.06
1.19
1.17
1.13
1.03
1.05
1.1
1.09
1.09
1.05
0.98
1.04
1.13
1.14
1.1
1.06
0.93
0.88
0.88
0.96
1.13
1.13
0.96
1.02
1.06
0.96
0.98
1.05
1.09
0.95
0.92
0.99
1.1
1.12
1.1
1.08
1
1.02
1.1
1.14
1.1
1.08
1.06
0.99
1.06
1.11
1.08
1.05
1.02
1.01
1.03
1.03
0.99
0.94
1
1.03
1.03
1.01
0.98
1.06
1.09
1.05
1.02
0.95
1.01
1.03
1.03
1
0.94
0.98
1.07
1.09
1.05
0.98
1.01
1.04
1.03
1.02
0.99
1.08
1.08
1.05
1.01
0.94
0.97
1.02
1.03
1.01
0.96
0.98
1.06
1.06
1
0.95
1.01
1.02
1.04
1.04
0.98
0.98
0.99
0.97
0.92
0.92
1.01
1.11
1.14
1.06
1.17
1.23
1.16
1.01
0.95
0.98
1.04
1.05
1.05
1
1.06
1.12
1.08
1.04
0.98
1.03
1.1
1.1
1.05
1
0.98
1.06
1.06
1.04
0.97
0.93
1.05
1.05
0.96
0.91
0.88
0.88
0.88
0.91
0.92
0.92
0.91
0.87
0.91
0.88
0.85
0.82
0.81
0.8
0.8
0.8
0.82
0.8
0.81
0.83
0.86
0.87
0.9
0.94
0.95
0.98
0.99
0.99
0.99
1
1
0.95
0.9
0.91
0.96
0.99
1.01
1.03
1.01
1.08
1.07
1.08
1.02
0.96
0.95
1
1.01
1.03
1.02
0.97
0.95
0.98
0.96
0.93
1.02
1.11
1.14
1.07
1.03
1.21
1.17
1.12
1.09
1.04
1.11
1.05
1.02
1.01
1.06
1.11
1.07
1.04
1.03
1.1
1.12
1.09
1.07
0.99
0.98
0.94
0.92
0.89
0.97
1.05
1.11
1.13
1.09
1.17
1.15
1.03
0.96
0.95
0.96
0.97
0.95
0.91
0.98
1.02
1.06
1.08
1.02
1.02
1
1.01
1.01
0.96
0.96
1.02
1.05
1.08
1.02
0.98
1.03
1.02
1.04
1
0.97
1.01
1.03
1.02
1.01
0.98
1.01
1.04
1.02
0.99
0.95
0.96
0.99
0.99
0.98
0.94
0.97
1.02
1.06
1.04
0.98
0.99
1.03
1.03
1.02
0.97
0.99
1.02
1.04
1.01
0.97
0.98
0.99
1.01
1.01
0.99
1.04
1.04
1.03
0.99
0.96
0.98
1
1
0.97
0.95
0.95
0.94
0.93
0.9
0.93
0.98
1
0.98
0.98
1.08
1.12
1.11
1.1
1.04
1.12
1.14
1.13
1.05
0.94
0.92
0.97
1
1.08
1.1
1.07
1.15
1.25
1.19
1.11
1.04
0.99
0.99
1.01
1.03
1.03
0.99
1.02
1.07
1.1
1.07
0.99
0.99
1
1.02
1.03
0.98
0.98
1.03
1.05
1.03
0.98
0.98
1.02
1.05
1.02
0.98
1
1.01
1.02
1
0.97
1.04
1.06
1.04
1.01
0.95
0.91
0.96
0.97
0.98
0.97
0.97
1.01
0.99
0.97
0.93
0.93
0.94
0.97
0.98
0.98
0.98
0.96
0.94
0.92
0.96
1.06
1.06
1.04
1.02
1.07
1.07
1.05
1.01
0.97
1.01
1.06
1.05
1.02
0.99
1.01
1.05
1.06
1.04
0.99
0.95
0.98
0.98
0.98
0.96
0.94
0.9
0.93
1.12
1.19
1.11
1.05
1.11
1.18
1.11
1
1
0.96
0.94
0.92
0.96
1.06
1.13
1.09
1.06
1.14
1.19
1.13
1.04
0.99
1.04
1.06
1.03
1.01
0.99
1.04
1.04
0.97
0.92
0.89
0.91
1.01
1.12
1.14
1.08
1.13
1.17
1.11
1.03
1.01
1.04
1.03
1.06
1.02
1.01
1.05
1.06
1.02
0.96
0.96
1
1
1
0.96
0.92
0.94
0.99
1.01
0.96
0.91
0.91
0.97
1.03
0.99
1.02
1.07
1.06
1.01
1.06
1.17
1.13
1.05
0.99
1.04
1.05
1.04
0.99
0.97
1.03
1.05
1.05
0.99
0.98
1.01
1.03
1
0.99
0.96
1.02
1.04
1.03
1.03
0.97
0.95
0.98
1.01
0.97
0.93
0.94
0.98
0.96
0.95
0.92
0.92
0.96
0.97
0.99
0.96
0.96
0.98
1.02
0.98
0.97
1.01
1.04
1.04
0.97
0.99
1.02
1.05
1.04
0.98
1.04
1.05
1.06
1.02
0.99
1.02
1.04
1.01
0.98
1
1.02
0.97
0.91
0.91
0.98
1.02
1.01
0.95
1.04
1.12
1.13
1.06
1.02
1.05
1.06
1.03
0.99
0.99
1.06
1.05
1.03
1.03
1.04
1.1
1.07
1.07
1.01
0.95
0.95
0.99
1.01
1
1.01
0.99
1.04
1.07
1.05
1.03
1
1.03
1.06
1.03
0.98
0.98
1.02
1.01
0.98
0.93
0.93
0.96
0.98
0.98
0.96
0.99
1
0.97
0.95
0.97
0.96
0.92
0.9
0.95
1.01
1.02
0.95
0.94
1.01
1.02
1
0.94
0.92
0.93
0.96
0.97
0.94
0.97
0.98
0.98
0.94
0.98
0.98
0.97
0.92
0.91
0.92
0.98
1.02
1.04
1.02
1.11
1.15
1.08
1.01
1.06
1.01
1.01
0.98
0.97
1
1
0.98
0.96
0.96
0.99
1
0.97
0.95
0.97
0.97
0.97
0.95
0.93
0.96
1
0.99
0.97
0.97
1.01
1
0.99
0.95
0.98
1
0.99
0.97
0.99
1
0.96
0.92
0.93
0.93
0.98
0.96
0.99
1.03
1.01
0.98
0.94
0.97
0.99
0.97
0.94
0.95
1
0.98
0.98
1
1.01
1.02
0.98
1.03
1.04
1
0.97
1
1
0.96
0.94
0.98
0.97
0.95
0.92
0.92
0.95
0.95
0.93
0.93
0.95
0.96
0.93
0.9
0.89
0.88
0.89
0.94
0.94
0.97
1.05
1.06
1.02
1.05
1.07
1
0.96
1
0.98
0.94
0.95
0.97
0.98
0.95
0.98
1.03
0.99
0.94
0.95
0.96
0.96
0.96
0.92
0.92
0.95
0.97
0.97
0.94
0.96
0.99
0.98
0.94
0.95
0.96
0.95
0.94
0.9
0.9
0.92
0.93
0.92
0.92
0.96
0.99
0.97
0.95
0.96
0.95
0.93
0.92
0.94
0.95
0.95
0.96
1
0.97
0.93
0.93
0.95
0.92
0.89
0.91
0.92
0.93
0.92
0.92
0.92
0.95
0.95
0.94
0.92
0.91
0.89
0.92
0.93
0.92
0.93
0.98
0.91
0.92
0.84
0.84
0.84
0.81
0.8
0.81
0.82
0.81
0.79
0.78
0.76
0.76
0.78
0.76
0.75
0.73
0.74
0.75
0.74
0.76
0.76
0.79
0.8
0.83
0.84
0.85
0.86
0.92
0.96
1
1.01
1
0.98
1.01
1.04
1.09
1.01
0.95
0.96
0.98
1.01
0.95
0.93
0.99
1
1.01
0.94
0.96
1
1.04
1.02
0.96
0.97
1.02
1.03
1.03
0.99
1.02
1.09
1.06
1.01
1.09
1.12
1.09
0.99
1.04
1.05
1
0.97
1
1.04
1.02
0.99
1.02
1.06
1.04
0.97
0.99
1.01
1.01
0.99
0.93
0.95
0.98
1
0.95
0.91
0.94
0.96
0.98
0.94
0.92
0.97
0.98
0.97
0.92
0.93
0.96
1
0.98
0.94
0.97
1
0.99
0.96
0.93
0.95
0.98
1
0.99
0.96
0.96
0.97
1.02
1.01
0.97
1.01
1.02
1.01
0.96
0.98
0.99
1
0.98
0.95
1.01
1.02
0.98
0.98
1.02
1.06
0.96
0.93
1.01
1.04
1.04
0.97
0.97
0.99
0.99
0.97
0.91
0.93
0.96
0.99
0.96
0.91
0.95
0.97
0.99
0.99
0.93
0.95
0.98
0.99
0.95
0.95
0.96
0.93
0.92
0.96
0.98
1
0.95
1.01
1.03
1.04
0.95
1
0.99
0.97
0.94
0.95
0.96
0.97
0.94
0.97
0.97
0.95
0.93
0.97
0.97
0.92
0.96
0.98
0.97
0.93
0.91
0.96
0.94
0.95
0.93
0.97
0.93
0.9
0.89
0.92
0.94
0.96
0.94
0.91
0.92
0.95
0.95
0.9
0.89
0.92
0.92
0.93
0.89
0.94
0.97
1.02
0.98
0.98
1.01
1
0.97
0.99
0.96
0.98
0.97
0.94
0.97
1.01
1.01
0.95
1
1.05
1.05
0.98
1.01
1.03
0.98
0.94
0.97
0.97
0.98
0.94
0.97
1.02
1.03
0.96
0.97
0.98
0.95
0.93
0.95
0.98
0.97
0.9
0.95
0.94
0.97
0.91
0.91
0.93
0.95
0.93
0.89
0.88
0.91
0.93
0.99
0.96
0.94
1.07
1.16
1.09
0.98
1.06
1.09
1
1.03
1
0.98
0.97
0.92
0.93
0.95
1
0.94
0.93
1.01
0.99
0.9
0.88
0.86
0.86
0.86
0.86
0.88
0.31
0.6
0.92
0.87
0.87
0.83
0.83
0.82
0.79
0.77
0.77
1.49
0.72
0.72
0.71
0.72
1.42
0.72
0.72
0.71
0.71
0.71
0.7
0.72
0.72
0.73
0.76
0.8
0.82
0.87
0.9
0.91
0.94
0.96
0.92
0.97
1.04
1.09
1.04
1.01
0.98
0.94
0.94
0.98
1.01
1.03
1
0.95
0.97
1.03
1.1
1.09
0.97
0.93
1.01
1.08
1.13
1.05
1.02
0.97
0.99
1.03
1.07
1.08
1.04
0.97
0.98
1
1.04
1.07
1.01
1.02
1.11
1.09
1.06
0.95
0.93
0.98
1.01
1.02
1.01
0.99
0.94
0.99
1.04
1.06
1.04
1
1.02
1
1.02
0.99
1.01
1.05
1.07
1.02
0.96
0.97
1
1.02
0.98
0.96
0.95
1.01
1.06
1.03
0.97
0.94
0.99
1.01
1
0.96
0.91
0.94
1.01
1.07
1.07
0.98
0.98
1.03
1.05
1.03
0.96
0.98
0.99
1.02
1.02
0.95
0.95
0.99
1
0.99
0.96
0.92
0.93
0.98
1
1
0.97
0.93
0.97
0.98
0.94
0.9
0.92
0.93
0.9
0.89
0.91
0.94
0.96
0.95
0.93
0.97
0.97
0.97
0.95
0.91
0.93
0.96
1
0.96
0.92
0.93
0.93
0.94
0.93
0.94
0.97
1.03
1.09
1.02
1.07
1.08
1.04
0.99
0.94
0.98
1.01
1
0.97
0.93
0.96
0.97
0.97
0.96
0.93
1
1.02
1.01
0.98
0.93
0.93
0.93
0.95
0.93
0.91
0.93
0.94
0.95
0.92
0.89
0.92
0.95
0.96
0.95
0.92
0.96
1.01
1.02
0.98
0.96
0.96
1.02
1
0.99
0.94
0.97
1.03
1.08
1.09
1.03
1.16
1.17
1.08
0.97
1.02
1.04
1.04
1.02
0.96
1.01
1.1
1.12
1.06
0.97
1.04
1.06
1.06
1
0.95
0.93
0.98
1
0.99
0.95
0.98
1.11
1.15
1.16
1.06
1.11
1.14
1.13
1.05
1
1.04
1.05
1.05
1
0.98
1.02
1.04
1.03
1
1
1.02
1.05
1
0.97
1
1.05
1.05
1.03
0.98
0.98
1.04
1.1
1.06
0.99
1.03
1.03
1.02
1.05
0.99
0.95
1.04
1.04
1.04
0.99
0.98
1.03
1.04
1.03
0.98
0.99
0.99
0.98
0.97
0.94
1
1.01
1.01
0.99
0.97
1.02
1.02
1.01
0.98
0.95
0.97
0.98
0.99
0.96
0.93
0.98
1
1.02
0.99
0.95
0.97
0.98
0.98
0.96
0.96
1.03
1.05
0.99
0.95
1
1.01
1.02
0.95
0.94
0.95
0.93
0.94
0.92
0.96
1
1.04
1.01
0.94
0.95
1
1.03
1.01
0.97
0.99
1.01
1.01
0.97
0.94
0.97
0.95
0.96
0.98
0.98
1.15
1.25
1.22
1.09
1.06
1.09
1.08
1.07
1.01
1.02
1.09
1.1
1.06
0.99
1.07
1.08
1.07
1
0.98
0.97
0.97
0.98
0.97
1.06
1.14
1.18
1.06
1.02
1.04
1.12
1.12
1.02
1.04
1.06
1.04
0.99
0.99
0.98
0.98
0.97
0.94
1.02
1.1
1.15
1.12
1
1.03
1.07
1.08
0.99
1
1.04
1.06
1.06
1.01
1.01
1.11
1.14
1.11
1.01
1.02
1.05
1.05
1.02
0.98
1.02
1.04
1.06
1.02
1
1.04
1.05
1.03
0.97
0.94
0.93
1.01
1.64
1.16
1.07
1.57
1.23
1.07
0.98
0.97
0.97
1.03
1.08
1.03
1.12
1.2
1.23
1.09
0.97
1
1.04
1.05
0.99
0.96
0.99
1
1.01
0.97
0.96
1.04
1.04
1.04
0.98
0.95
1
1.02
1.02
0.97
0.94
0.95
0.96
0.97
0.97
0.97
1.03
1.1
1.08
1.01
1.05
1.06
1.07
1.05
0.98
0.98
1.02
1.03
1
0.95
1.03
1.08
1.1
1.05
0.98
0.92
0.95
0.99
1.16
1.14
1.06
1.23
1.3
1.18
1.08
0.99
1.03
1.08
1.08
1.01
1.01
1.06
1.1
1.04
0.99
1.04
1.09
1.09
1.02
0.98
1
1.03
1.07
1.05
0.98
1.01
1.04
1.04
1.01
0.99
1
1.01
1.04
1.03
1.01
0.97
0.98
0.98
1.05
1.24
1.33
1.18
1.03
1.04
1.05
1.08
1.01
1
1.09
1.1
1.08
1.03
0.99
1.05
1.09
1.08
1.01
1.01
1.04
1.05
1
0.97
1.01
1.07
1.07
1
1.06
1.07
0.98
0.96
0.94
1.04
1.63
1.38
1.06
1.01
1.04
1.15
1.1
1.03
1.07
1.07
1.1
1.03
1.01
1.05
1.06
1.04
1.01
1.05
1.18
1.15
1.08
0.96
0.98
1.04
1.14
1.18
1.09
1.12
1.27
1.28
1.18
1.04
1.03
1.08
1.17
1.12
1.03
0.96
1.02
1.13
1.15
1.07
1.04
1.15
1.18
1.11
0.99
0.98
1.02
1.08
1.05
1.01
1.03
1.09
1.12
1.06
1.01
1
1.05
1.06
1.04
0.99
0.99
1.05
1.07
1.02
0.98
1.05
1.09
1.07
1
1.01
1.04
1.04
1.04
0.98
1.03
1.05
1.05
1
0.97
1.02
1.06
1.07
1.03
0.98
1.05
1.12
1.14
1.15
1.06
1.05
1.14
1.09
1.03
1.07
1.17
1.14
1.1
0.99
1.02
1.03
1.03
1.02
1.03
1.13
1.11
1.01
1
1.05
1.05
1.03
0.96
0.96
1
1.03
1.07
1
0.99
1.03
1.06
1.01
0.95
0.95
0.99
1
0.97
0.92
0.93
0.98
1.03
1.03
0.97
1.01
1.03
1.01
1
0.97
0.99
1.05
1.09
1.05
1.04
1.2
1.21
1.16
1.04
1.04
1.09
1.09
1.06
1.03
1.01
0.98
1.04
1.13
1.12
1.05
1.04
1.08
1.09
1.01
0.96
1.04
1.08
1.1
1.03
0.98
1
1.04
1.08
1.05
0.98
0.99
1.06
1.08
1.05
0.98
0.98
1.08
1.14
1.11
1.01
0.99
1
1.03
1.02
0.96
1.02
1.06
1.05
1
0.98
1.03
1.07
1.06
0.99
1
1.04
1.07
1.07
1.02
0.96
0.95
0.96
0.96
0.96
1.01
1.17
1.12
1.04
1.16
1.38
1.26
1.11
1
0.99
1.01
1.04
1.07
1.01
1.19
1.26
1.21
1.13
1.03
1.03
1.03
1.03
1.16
1.25
1.25
1.14
1.02
1.05
1.08
1.05
1
1
1.08
1.08
1.05
1
1.04
1.09
1.13
1.05
1.01
1.08
1.12
1.11
1.01
1.02
1.04
1.03
0.99
0.97
1
1.08
1.12
1.08
1
1.07
1.11
1.07
0.98
0.95
0.99
1.03
1.06
0.98
0.97
1.07
1.09
1.08
1
1.04
1.08
1.09
1.05
0.99
1.02
1.09
1.12
1.06
1
1.04
1.08
1.04
0.99
1.01
1.11
1.2
1.12
1.04
1.2
1.27
1.22
1.09
1.09
1.15
1.13
1.1
1
1.01
1.15
1.17
1.09
1
1.04
1.07
1.08
1.05
0.99
1.17
1.23
1.21
1.14
1.02
0.94
0.95
0.97
1.04
1.07
1.05
1.19
1.43
1.25
1.09
1
1.07
1.17
1.13
1.03
0.98
1.02
1.07
1.16
1.09
1.01
1.03
1.09
1.09
1.04
1.07
1.2
1.2
1.15
1.05
1.03
1.06
1.05
0.98
1
1.09
1.12
1.08
1
1.07
1.1
1.08
1.04
0.98
0.99
1.11
1.16
1.15
1.05
1.08
1.23
1.12
0.92
0.89
0.91
0.92
0.89
0.88
0.9
0.9
0.88
0.86
0.84
0.82
0.84
0.8
0.81
0.81
0.81
0.83
0.86
0.89
0.92
0.96
1
1.04
1.09
1.07
1.1
1.14
1.11
1.08
1.04
1
0.97
1
1.06
1.09
1.05
1.06
1
1.02
1.02
1.01
1.01
1.01
1.01
1.06
1.06
1.04
1
0.99
1.02
1.05
1.02
0.99
1.03
1.02
1
0.99
0.96
0.99
1.02
0.98
0.92
0.92
0.9
0.91
0.88
0.91
0.9
0.92
0.88
0.9
0.93
0.94
0.94
0.94
0.99
1.06
1.1
1.1
1.08
1.04
1.08
1.11
1.07
1.05
1.05
1.04
1.01
0.97
0.99
1.01
1.01
1
1.04
1.11
1.13
1.09
1.05
0.97
0.98
0.98
1.01
0.99
1.09
1.09
1.07
1.07
1.04
1.06
1.07
1.06
1.02
0.99
1.01
1.02
1.04
1.03
1.01
1.02
1.08
1.08
1.06
1.01
1.03
1.07
1.03
1
0.99
1.08
1.15
1.11
1.05
0.97
1.01
1.04
1.03
1.01
0.97
0.98
1.05
1.02
1.06
1.02
1.09
1.17
1.12
1.07
1.01
1.08
1.11
1.06
1
0.99
1.03
1.05
1.05
0.99
0.95
1.03
1.1
1.08
1.03
0.97
0.98
1
1
1.08
1.28
1.38
1.2
1.03
1.06
1.11
1.1
1.05
1
1.08
1.16
1.13
1.1
1.03
1.11
1.16
1.13
1.1
1.03
1.07
1.1
1.08
1.04
0.95
0.95
0.97
1.09
1.14
1.08
1.28
1.44
1.28
1.11
0.99
0.98
0.99
1.03
1.06
1.06
1.16
1.21
1.13
1.03
0.99
1.02
1.06
1.12
1.07
1.06
1.12
1.18
1.12
1
1.02
1.09
1.16
1.1
1.08
1.22
1.24
1.13
1.01
1.04
1.15
1.13
1.07
1.03
1.06
1.08
1.06
1
0.99
0.99
1.04
1.04
1.04
1.01
1.05
1.08
1.07
1.06
0.98
0.97
0.99
1.02
1.05
0.99
0.99
1.04
1.08
1.04
1.03
1.1
1.11
1.06
1
1.08
1.14
1.14
1.07
0.99
1.05
1.07
1.09
1.06
1.02
1.11
1.16
1.13
1
0.97
0.98
1.01
1.02
1
1.11
1.17
1.13
1.06
0.97
1
1.03
1.04
0.99
1
1.07
1.11
1.1
1.04
0.99
1.01
0.98
0.97
0.92
0.94
0.96
0.96
0.96
0.95
1.02
1.21
1.2
1.06
1.04
1.03
1.06
1.03
0.98
1.02
1.06
1.13
1.09
1.03
1.13
1.2
1.16
1.04
0.99
1.03
1.15
1.15
1.08
0.95
0.94
0.94
1.01
1.02
1.33
1.68
1.45
1.18
1.04
1.18
1.25
1.2
1.14
1.04
1.14
1.16
1.15
1.08
1.04
1.06
1.1
1.12
1.07
1
1.02
1.04
1.03
1.02
0.98
0.97
1.04
1.06
1.05
1
1
1.02
1.03
1.01
0.99
0.94
0.96
1.03
0.98
1.02
1.29
1.28
1.24
1.08
1.14
1.21
1.2
1.12
1
1.02
1.09
1.14
1.12
1.07
1
1.1
1.1
1.1
1.07
0.99
1.05
1.12
1.1
1.06
1.01
0.96
1
1.04
1.09
1.01
1.03
1.15
1.23
1.13
1.02
1.08
1.14
1.1
1.09
1.04
1.12
1.19
1.18
1.08
1.03
1.06
1.1
1.09
1.04
1.01
1.1
1.16
1.15
1.07
1.02
1.06
1.1
1.13
1.03
0.98
1.04
1.08
1.12
1.07
1
1.06
1.13
1.1
0.99
1.05
1.14
1.15
1.11
1.01
1.07
1.1
1.11
1.05
0.98
1.04
1.05
1.06
1.04
0.99
1.01
1.08
1.12
1.12
1.07
1.04
1.08
1.06
1.02
1.01
0.98
1
1.07
1.13
1.14
1.08
1.23
1.22
1.17
1.05
1.05
1.09
1.14
1.1
1.03
1.09
1.14
1.16
1.1
1.02
1.04
1.1
1.04
0.99
1.01
1.08
1.1
1.06
1
1.04
1.1
1.13
1.03
0.98
0.99
1.01
1.04
1.05
0.99
1.03
1.04
1.04
1.03
1.01
1.07
1.16
1.08
1.01
1.06
1.14
1.16
1.08
1
1.03
1.06
1.08
1.05
0.99
1.03
1.08
1.06
1.02
0.98
0.97
1.01
1.03
1.01
1
0.97
1.01
1.07
1.14
1.08
1
1.05
1.09
1.1
1.02
1
1.05
1.1
1.06
1
1.03
1.08
1.07
1.04
0.99
1.01
1
0.98
0.97
0.97
1.01
1.26
1.27
1.17
1.03
1.09
1.13
1.12
1.06
0.99
1.02
1.09
1.11
1.06
1
1.09
1.15
1.14
1.13
1.02
1.02
1.06
1.09
1.07
1.04
0.99
1.04
1.08
1.08
1.02
1.06
1.13
1.13
1.09
1.03
1.06
1.12
1.12
1.1
1.03
1.08
1.08
1.06
1.05
1
1
1.02
1.02
0.99
0.95
0.97
1
1.03
1.05
1.01
1.06
1.08
1.07
1.02
1.02
1.08
1.08
1.05
0.98
0.98
1.12
1.15
1.12
1.05
1.08
1.13
1.08
0.99
1.03
1.05
1.06
1.05
1
1.06
1.08
1.03
0.98
0.94
0.9
0.94
1.01
1.11
1.16
1.09
1.15
1.56
1.26
1.04
0.99
1
1.03
1.06
1.07
1.02
1.05
1.06
1.06
1.05
1.03
1
1.04
1.07
1.07
1.05
0.96
0.94
1.01
1.03
1.08
1.1
1.1
1.29
1.31
1.18
1.04
1.05
1.07
1.06
1.02
0.98
1.04
1.14
1.13
1.08
1.02
1.03
1.09
1.1
1.02
0.99
1.01
1.04
1.02
0.99
0.98
1.05
1.08
1.04
1.02
1
1.01
1.06
1.06
1.03
0.97
1.02
1.06
1.05
1.02
1.03
1.1
1.1
1.03
0.97
1
0.99
0.98
0.95
0.94
0.96
1.01
1.07
1.05
1.01
1.03
1.1
1.13
1.09
1
1.02
1.07
1.16
1.1
1.03
1.11
1.25
1.19
1.03
1.02
1.1
1.15
1.09
1.06
1.08
1.1
1.09
1.04
1.02
1.09
1.11
1.08
1.01
1.03
1.11
1.14
1.12
1.04
1.09
1.05
1.02
1.03
1.02
1.11
1.18
1.16
1.06
1.04
1.14
1.12
1.09
1.03
1.04
1.07
1.09
1.05
0.98
1.02
1.06
1.07
1.03
0.97
0.99
1.05
1.09
1.08
1.14
1.22
1.22
1.1
1.01
1.07
1.11
1.09
0.96
1.02
1.09
1.16
1.18
1.16
1.05
1.22
1.3
1.2
1.09
1.03
1.03
1.04
1.04
1
0.98
1.08
1.13
1.1
1.07
1
1.04
1.08
1.1
1.06
1.02
1.07
1.07
1.04
1.04
0.96
1
1.03
1
1.02
1
0.96
1.01
1.06
1.08
1.04
0.98
1.05
1.08
1.12
1.06
0.97
1.05
1.22
1.16
1.07
1.01
1.07
1.12
1.11
1.03
0.99
1.07
1.11
1.1
1.05
0.99
1.02
1.07
1.03
1.03
0.98
1.03
1.12
1.13
1.09
0.99
1.03
1.07
1.08
1.03
0.97
1.02
1.02
1.01
0.97
0.95
1.05
1.11
1.06
1.02
0.96
1.03
1.08
1.08
1.02
1.02
1.13
1.17
1.09
0.99
1.04
1.07
1.07
1.01
1.01
1.09
1.14
1.12
1.03
1.05
1.08
1.1
1.06
1
1.05
1.12
1.12
1.09
0.99
1
1.04
1.05
1.04
0.97
0.98
1.02
1.1
1.06
0.99
1.01
1.05
1.06
1.11
1.06
1.04
1.12
1.12
1.01
0.98
0.98
0.98
1.02
1.02
1.07
1.07
1.18
1.27
1.13
1.03
1.06
1.08
1.07
1.03
0.97
0.98
1.03
1.07
1.09
1.06
1.02
1.07
1.13
1.09
1.04
0.99
1
1.03
1.02
1.01
0.98
1.02
1.1
1.09
1.03
1.01
1.07
1.05
1.02
1
0.99
1.07
1.13
1.1
1.03
1.05
1.07
1.11
1.06
1
1.03
1.08
1.08
1.05
1.01
1.02
1.07
1.11
1.09
1.05
1.14
1.12
1.09
1.04
1.05
1.14
1.12
1.07
1
1.02
1.02
1.02
1
0.99
1.05
1.11
1.09
1.02
1.02
1.1
1.15
1.05
0.99
0.98
1.04
1.08
1.07
1.03
1.16
1.18
1.11
1.02
0.99
0.99
1.02
1.01
1
1.08
1.18
1.2
1.1
1
1.05
1.1
1.12
1.09
1.04
1.09
1.1
1.06
0.99
0.98
1.06
1.08
1.08
0.99
0.98
1.02
1.06
1.07
1
1.04
1.04
0.97
1
1.02
1.04
1.02
0.97
1.07
1.17
1.23
1.12
1.03
1.05
1.07
1.07
1
0.94
0.99
1.04
1.08
1.11
1.06
1.18
1.17
1.13
1.05
1.16
1.16
1.12
1.03
0.96
1
1.01
1.04
0.98
0.94
1.01
1.06
1.1
1.02
0.98
1.07
1.14
1.13
1.03
1.01
1.07
1.12
1.14
1.1
1.01
1.08
1.16
1.14
1.08
0.99
1.05
1.18
1.19
1.12
1.03
1.03
1.06
1.09
1.07
0.98
1
1.04
1.05
1.02
1.09
1.12
1.11
1.02
1.01
1.01
1.01
0.99
0.97
0.97
1.03
1.11
1.08
1
0.99
1
1.01
0.99
0.97
1.03
1.08
1.11
1.05
1.03
1.06
1.12
1.11
1.01
1.04
1.06
1.06
1.07
1.02
1.01
1.12
1.11
1.09
1.01
0.99
1.04
1.07
1.1
1.03
1.04
1.09
1.12
1.06
0.97
0.99
1.09
1.13
1.09
1.04
1.15
1.25
1.25
1.14
1.11
1.21
1.26
1.13
1.05
1.01
1.09
1.1
1.07
1.04
1.02
1.08
1.13
1.11
1.05
1.02
1.1
1.13
1.11
1.05
1.01
1.05
1.09
1.05
1.04
0.99
1.06
1.11
1.13
1.11
1.02
1.07
1.17
1.2
1.08
0.95
0.94
0.96
1.12
1.16
1.06
1.12
1.2
1.15
1.04
0.99
1.07
1.07
1.05
0.99
1.03
1.11
1.14
1.08
1.02
1.03
1.02
1.02
1.01
0.99
1.04
1.08
1.09
1.04
1.02
1.06
1.07
1.06
1
0.96
1.01
1.09
1.1
1.03
1
1.04
1.11
1.15
1.13
1.03
1.08
1.14
1.13
1.13
1.01
1.07
1.09
1.06
1.05
1
1
1.02
1.04
1.05
1.04
0.99
1
1.04
1.06
1.05
1.01
1
1.03
1.03
1.02
0.98
1.05
1.15
1.13
1.07
1.02
1.07
1.1
1.06
1.01
1.04
1.12
1.12
1.04
1.03
1.14
1.21
1.15
1.07
1.03
1.06
1.08
1.07
1.06
1.04
1.12
1.12
1.08
1.06
1
1.01
1.18
1.2
1.11
0.99
1.02
1.12
1.17
1.14
1.03
1.08
1.19
1.15
1.1
1.02
0.98
1.04
1.1
1.08
1.03
1.11
1.15
1.16
1.08
1.03
1.07
1.1
1.07
1.02
1
1.04
1.13
1.16
1.05
0.97
0.93
1.01
1.62
1.11
0.99
1.22
1.15
1.06
1.03
1.04
1.09
1.11
1.06
0.99
1.02
1.03
1.06
1.03
1.05
1.14
1.17
1.14
1.07
1.01
1.06
1.09
1.09
1.05
0.99
0.98
1
1.02
1.01
0.94
0.97
1
0.99
0.98
0.94
0.96
1
1.01
1.01
0.99
1.01
1.03
1.03
1
0.97
1.01
1.05
1.03
1
1.04
1.1
1.09
1.07
0.97
1
1.12
1.14
1.16
1.12
1.32
1.29
1.16
1.02
1.07
1.14
1.14
1.11
1.03
1.04
1.16
1.16
1.09
1.01
1.07
1.15
1.14
1.09
1.05
1.1
1.12
1.05
0.99
0.98
1.07
1.13
1.04
0.99
1.05
1.12
1.16
1.09
1.04
1.1
1.14
1.09
1.03
1.1
1.09
1.09
1.03
1
1.04
1.07
1.11
1.04
0.99
1.01
1.06
1.1
1.11
1.05
1.11
1.08
1.04
0.99
1.02
1.07
1.1
0.95
0.94
1.01
1.2
1.24
1.18
1.14
1.29
1.29
1.15
1.03
1.08
1.1
1.07
1.05
0.98
1.03
1.09
1.11
1.08
1
1.02
1.05
1.09
1.06
1.04
1.04
1.09
1.1
1.08
1.05
1.04
1.18
1.19
1.12
1
0.99
0.99
1.03
1.04
1
0.98
1.05
1.07
1.08
1.04
1.17
1.21
1.17
1.04
1.01
1.09
1.11
1.09
1.02
1.04
1.1
1.09
1.02
1.02
1.06
1.16
1.15
1.05
1.01
1.11
1.16
1.09
1.01
1.03
1.06
1.01
0.96
0.96
1.02
1.07
1.03
0.99
0.94
1
1.06
1.06
0.99
0.98
1.01
1.03
0.96
0.98
1.01
1.07
1.11
1.05
1.2
1.22
1.19
1.1
1
1.04
1.07
1.12
1.1
1.04
1.07
1.08
1.06
1.06
0.99
0.97
1.03
1.04
1.07
1.06
1
1.07
1.1
1.06
1.02
1.01
1.1
1.11
1.04
0.95
0.98
1
1.02
0.99
1.02
1.13
1.1
1.02
0.96
1
1.08
1.07
1.02
0.96
0.99
1.02
1.04
1.04
1
0.97
1.05
1.06
1.04
1.02
0.98
1.01
1.11
1.17
1.11
1.08
1.13
1.17
1.17
1.1
1.03
1.11
1.15
1.16
1.11
1.08
1.01
0.95
0.97
1.01
1.07
0.96
1
1.12
1.17
1.12
1.04
0.98
1.04
1.09
1.05
1
0.96
1.02
1.06
1
1.01
1.02
1.02
1.03
0.98
1
1.02
1.1
1.05
0.99
1.03
1.07
1.03
0.97
1.02
1.11
1.1
1.06
1.01
1.06
1.11
1.08
1.01
0.96
1
0.97
0.96
0.95
0.97
1.05
1.09
1.09
1.07
1.02
1.05
1.04
1.02
0.95
0.97
1.05
1.1
1.14
1.09
1.07
1.1
1.09
1.04
1.03
1.14
1.19
1.17
1.08
1.06
1.11
1.08
0.92
0.86
0.87
0.87
0.89
0.9
0.85
0.83
0.91
0.85
0.83
0.81
0.79
0.79
0.79
0.76
0.75
0.74
0.74
0.72
0.7
0.69
0.68
0.66
0.66
0.65
0.65
0.63
0.64
0.62
0.63
0.62
0.63
0.63
0.64
0.65
0.68
0.7
0.74
0.77
0.81
0.85
0.88
0.9
0.89
0.85
0.84
0.85
0.84
0.81
0.82
0.82
0.8
0.8
0.85
0.91
0.92
0.92
0.99
1.05
1.06
1.07
1.06
1.02
0.93
0.93
0.91
0.99
1.06
1.12
1.61
1.26
1.17
1.06
1.06
1.06
1.05
1.05
1.01
1.12
1.14
1.12
1.07
1
1.04
1.08
1.09
1.06
1.03
1
1.08
1.15
1.17
1.16
1.11
1.16
1.12
1.1
1.08
1.05
1.1
1.14
1.11
1.1
1.03
1.1
1.13
1.11
1.09
1.07
1.04
0.98
0.92
0.96
1.22
1.11
1.07
1.37
1.29
1.16
1.03
1.04
1.04
1.04
1.02
0.98
1.03
1.09
1.12
1.11
1.06
1.13
1.13
1.12
1.1
1.04
1.03
1.16
1.18
1.16
1.06
1.12
1.15
1.12
1.08
1.02
1.09
1.09
1.08
1.02
0.97
1.02
1.03
1.02
0.98
1
1.02
1.01
0.95
0.98
0.99
1.03
1.02
0.98
1.04
1.08
1.08
1.01
1
1.05
1.06
1.04
1
1.03
1.1
1.09
1.09
1.02
1.09
1.1
1.06
1.02
0.98
1
1.04
1.04
1.02
0.97
0.99
1.03
1.03
1.04
1
1.05
1.1
1.01
0.96
0.99
1.01
1.1
1.09
1.07
1.12
1.13
1.07
1
0.99
1.02
1.03
1.03
0.98
0.98
0.97
1.02
1.03
1.09
1.6
1.27
1.11
1.02
1.06
1.08
1.08
1.03
1.1
1.13
1.11
1.07
1.03
1.1
1.09
1.07
1.03
1.01
1.05
1.06
1.06
1.01
1.03
1.04
1.09
1.08
1.03
1.11
1.15
1.09
1.04
1.04
1.06
1.04
1
0.96
0.95
0.97
1.02
1.02
0.97
1.04
1.11
1.12
1.08
1.04
1.12
1.12
1.05
0.98
0.99
0.94
0.9
0.88
0.94
1.18
1.06
1.01
1.08
1.01
0.92
0.9
0.9
0.99
1.03
1
1.09
1.1
1.09
1.1
1.07
1.01
1.02
1.02
1.02
1.03
1.01
0.98
1.01
1.03
1.02
1.01
0.99
0.97
1.02
1.02
1.01
0.99
0.95
0.98
1.03
1.02
0.99
0.97
1.05
1.07
1.03
1.01
1.04
1.1
0.99
0.94
0.94
1.06
1.62
1.29
1.12
0.98
0.96
0.97
0.94
0.9
0.88
0.94
1.02
1
1.31
1.21
1.17
1.18
1.11
1.06
1.08
1.1
1.14
1.14
1.12
1.1
1.13
1.06
0.97
0.95
1.27
1.65
1.28
1.15
1.04
1.08
1.1
1.11
1.08
1.04
1.05
1.12
1.15
1.14
1.08
1.02
0.99
0.99
0.97
0.99
1.35
1.34
1.25
1.14
1.23
1.23
1.19
1.07
1.1
1.15
1.14
1.06
1.04
1.01
1
0.92
0.91
0.97
0.98
0.91
0.88
0.96
1.07
0.95
0.88
0.87
0.88
0.85
0.3
0.56
0.81
0.32
3.02
0.8
0.78
1.55
0.75
0.74
0.72
0.72
0.71
0.71
0.7
0.7
0.7
0.72
0.75
0.8
0.86
0.92
1.03
1.11
1.02
0.92
0.98
1.05
1.11
1.17
1.14
1.07
1.04
1
1.1
1.24
1.16
1.1
1.02
1
1.04
1.16
1.12
1.04
0.96
1.04
1.05
1.03
1
0.94
1.01
1.14
1.17
1.08
1.07
1.13
1.08
1.03
1.01
1.15
1.21
1.13
1.06
0.98
1.01
1.03
1.05
1.02
0.94
0.98
1.03
1.14
1.18
1.09
1.2
1.25
1.17
1.01
0.99
1.13
1.17
1.27
1.17
1.24
1.21
1.15
1.07
1.1
1.12
1.15
1.09
0.99
1.05
1.15
1.13
1.06
0.96
1
1.07
1.13
1.06
1
1.05
1.02
1.04
1
0.95
1
1.05
1.04
1.06
0.97
0.91
0.93
0.95
1.01
0.97
1.15
1.58
1.34
1.07
1.09
1.19
1.18
1.1
1.02
1.11
1.07
1.02
0.98
1.09
1.26
1.36
1.24
1.09
1.07
1.1
1.11
1.07
1.02
1.12
1.15
1.12
1.03
0.98
1.02
1.06
1.03
1.01
0.95
0.98
1.03
1.01
1.01
0.97
1.01
1.17
1.19
1.11
1.03
1.13
1.18
1.09
1
1.06
1.09
1.1
0.97
0.9
0.93
0.94
1.08
1.05
1.64
1.45
1.21
1.04
1.11
1.08
1.01
0.95
0.98
1.2
1.27
1.27
1.13
1.15
1.18
1.16
1.09
0.96
0.92
0.98
1.04
1.07
1.05
1.41
1.31
1.26
1.07
1
0.97
0.89
0.87
0.91
0.96
1.05
0.94
0.88
0.9
0.93
0.94
0.92
0.91
0.87
0.9
0.97
1.11
1.23
1.25
1.2
1.19
1.2
1.13
1.03
1.06
1.09
1.06
1.01
0.94
0.92
0.96
1.12
1.37
1.18
1.1
1.15
1.13
1.13
1.09
1.02
1.03
1.06
1.11
1.11
1.06
1.02
1.06
1.18
1.18
1.1
1.02
1
1.03
1.08
1.03
0.99
1.02
1.09
1.1
0.98
0.93
0.98
1.14
1.29
1.23
1.13
1.21
1.28
1.26
1.07
1.08
1.11
1.1
1.05
0.94
0.93
0.99
1.09
1.28
1.15
1.09
1.14
1.15
1.19
1.13
1.03
1.07
1.05
1.05
1.47
1.31
1.17
1.04
1.06
1.11
1.15
1.12
1.07
1.12
1.17
1.14
1.08
1.01
1.07
1.09
1.07
1.03
1.04
1.12
1.09
1.02
0.97
0.95
1.02
1.11
1.13
1.08
1.23
1.2
1.09
0.98
1.06
1.22
1.29
1.18
1.09
1.16
1.18
1.12
1.02
1.06
1.11
1.15
1.11
1.03
1.12
1.15
1.14
1.06
1
1.06
1.1
1.12
1.08
1.06
1.15
1.15
1.07
1.01
1.06
1.13
1.11
0.99
0.99
1.04
1.06
1.06
1.01
1.09
1.12
1.13
1.05
0.97
1.01
1.07
1.02
1.03
1.17
1.12
1.08
0.97
1.01
1.12
1.15
1.08
1.02
1.04
1.19
1.24
1.18
1.04
1.02
1.07
1.11
1.06
1
1.06
1.1
1.12
1.06
0.98
1
1.05
1.14
1.12
1.05
1.11
1.07
1.04
0.96
0.99
1.1
1.2
1.17
1.1
1.23
1.19
1.13
1.04
1.04
1.09
1.12
1.06
0.97
1.02
1.1
1.15
1.09
1.03
1.13
1.1
1.06
0.99
1.03
1.08
1.12
1.08
1.03
1.07
1.1
1.05
1.02
0.97
1.05
1.12
1.12
1.03
1.01
1.06
1.17
1.15
1.03
1.02
1.04
1.1
1.08
1.14
1.19
1.12
1.01
0.99
1.14
1.21
1.15
1.03
1.07
1.15
1.21
1.12
1.05
1.07
1.1
1.1
1.09
1.05
1.21
1.21
1.14
1.02
1.04
1.04
1.05
1.06
0.98
1.04
1.04
1.06
0.97
0.92
0.92
0.95
1.04
1.02
1.24
1.62
1.29
1.06
1.05
1.13
1.1
1.05
1.02
1.09
1.1
1.1
1.04
0.98
0.99
1.03
1.07
1.02
0.98
0.93
0.97
1.04
1.1
1.1
1.6
1.39
1.12
1.02
1.02
1.13
1.26
1.18
1.06
1.06
1.08
1.13
1.12
1.05
1.1
1.13
1.13
1.03
0.98
0.95
0.98
1.11
1.17
1.16
1.09
1.29
1.39
1.15
1.04
1.06
1.18
1.09
0.97
0.93
1.01
1.1
1.06
1.04
1.66
1.46
1.18
1.02
1.05
1.11
1.11
1.09
1.02
1.01
1.08
1.2
1.16
1.11
1.03
1.1
1.12
1.08
1.04
0.97
0.96
0.98
1.01
1.01
0.98
1.12
1.05
1.07
0.97
0.97
1.08
1.2
1.26
1.19
1.03
1.09
1.21
1.18
1.04
0.97
0.99
1
1
0.97
0.99
1.06
1.07
1.08
0.98
0.99
1
1.03
1.03
1
1.12
1.15
1.09
1
1
1.09
1.13
1.12
1.02
0.99
1.04
1.12
1.14
1.08
1.04
1.11
1.17
1.13
1.07
1.11
1.12
1.02
0.95
0.98
1.02
1.04
1
0.97
1.03
1.06
1.1
1.01
0.97
1
1.06
1.08
1.05
0.98
1.02
0.99
0.95
0.93
0.99
1.23
1.26
1.13
1.03
1.13
1.13
1.12
1.03
1.02
1.14
1.27
1.18
1.02
1.04
1.05
1.05
0.99
0.99
1
1
0.97
1.01
1.02
0.97
0.95
0.99
1.03
0.98
0.96
1
1.03
1.03
1.07
1.07
1.05
1.01
1.02
1.03
0.98
0.99
1.01
0.99
0.98
1.03
1
0.95
0.94
0.98
1
1
0.97
1
1.02
1.01
0.95
0.95
1.01
0.99
0.98
0.96
0.96
1
1.02
0.99
0.98
1.01
1.04
1
0.99
1.02
1.03
0.98
1.02
1.03
1.02
0.93
0.96
0.96
0.96
0.95
0.98
1.11
1.15
1.08
1.07
1.06
1.04
1
0.99
0.98
0.98
0.95
0.96
0.97
1
0.98
0.96
1.03
1.02
1.01
0.96
0.98
0.97
0.97
0.95
0.94
0.98
1
1.01
0.97
1
1.03
1.03
0.97
0.99
1.01
1.02
1.01
1
1.02
1.01
1.01
1.05
1.03
1
1
0.99
0.99
0.95
0.94
0.97
1.1
1.09
1.66
1.49
1.05
0.98
1.03
1.05
1.03
0.98
1
1.06
1.06
1
1.02
1.11
1.13
1.06
1
1.03
1.05
1
0.93
0.93
1.01
1.08
1.09
1.02
1.07
1.17
1.12
1.02
1
1.02
1.01
0.99
0.95
1
1.01
1.04
1.01
1.09
1.18
1.07
1.01
1.04
1.05
1.08
0.97
0.99
1.03
1.13
1.07
1.03
1.06
1.1
1.06
1.01
1.04
1.05
1.03
0.97
1.01
1.01
1.01
0.98
1.03
1.1
1.06
0.99
0.98
0.98
1
0.98
0.95
0.99
0.98
1
0.99
0.97
1.03
1
1
0.96
0.92
0.93
0.95
1.01
1.11
1.07
1.31
1.32
1.11
0.99
0.99
1.05
1.01
0.95
0.96
0.98
1.03
0.99
1.07
1.14
1.09
1.06
1.12
1.09
1.05
1.06
1.07
1.06
1.01
0.98
1.02
1.04
1
0.97
0.99
1
0.99
0.94
0.92
0.94
0.96
0.99
1.04
1.62
1.28
1.03
1.01
1.08
1
1.04
1.09
1.11
1.01
1.02
1.04
0.99
1.02
1.03
1
0.94
0.96
0.96
0.99
0.97
0.92
0.91
0.96
0.98
1.01
1.03
1
1.09
1.14
1.04
1.01
1.03
1.01
0.96
0.96
0.98
0.97
0.95
0.99
1.02
1
0.96
0.98
0.98
0.95
0.91
0.91
0.91
0.91
0.91
0.89
0.91
0.9
0.92
0.95
0.9
0.9
0.9
0.86
0.83
0.82
0.83
0.81
0.79
0.77
0.79
0.78
0.78
0.77
2.11
0.86
0.7
0.73
0.7
0.69
0.68
0.68
0.67
0.66
0.65
0.6
0.47
0.25
0.64
0.65
0.64
0.63
0.65
0.65
0.66
0.65
0.66
0.67
0.69
0.7
0.73
0.79
0.86
0.93
0.98
1
0.98
0.94
0.89
0.91
0.92
1
1.06
1.09
1.04
1.19
1.18
1.12
1.05
0.95
0.91
0.97
1.01
1.12
1.11
1.07
1.11
1.14
1.14
1.03
0.95
0.96
0.97
1
1
0.97
0.94
1.02
1.02
1.01
0.95
0.92
0.97
0.98
0.99
0.97
0.93
0.95
0.96
1
0.96
0.94
0.98
1.02
1
0.97
0.92
0.9
0.96
1.04
1.08
1.08
1
1.04
1.05
1.07
1.06
0.97
0.92
0.93
0.94
0.93
0.9
0.9
0.99
1.09
0.93
0.86
0.87
0.87
0.83
0.82
0.83
0.85
0.84
0.83
0.86
0.9
0.93
0.97
0.98
1
0.99
1
0.96
0.96
0.97
0.97
1
1
0.98
0.96
0.95
0.97
1
1
1
0.99
0.95
0.98
0.97
0.99
0.97
0.93
0.97
0.96
0.97
0.93
0.94
0.97
0.97
0.93
0.95
0.99
1.01
0.94
0.91
0.94
0.94
0.97
0.96
0.98
1.05
1.01
1.01
1.03
0.99
0.99
1.01
0.98
0.92
0.93
0.95
1
0.98
0.94
0.94
0.97
0.97
0.93
0.91
0.93
0.92
0.92
0.89
0.9
0.92
0.94
0.93
0.91
0.94
0.95
0.97
0.91
0.92
0.93
0.95
0.94
0.91
0.9
0.91
0.95
0.95
0.91
0.9
0.94
0.95
0.95
0.91
0.91
0.94
0.95
0.94
0.93
0.96
0.95
0.93
0.91
0.87
0.89
0.91
0.98
0.99
0.97
1.02
1.03
1
0.95
0.95
0.93
0.92
0.88
0.87
0.9
0.93
0.94
0.93
0.9
0.93
0.92
0.94
0.92
0.91
0.93
0.88
0.88
0.87
0.92
1.02
1.12
1.08
1
1.02
1.01
0.95
0.88
0.87
0.86
0.86
0.84
0.82
0.84
0.86
0.89
0.91
0.9
0.88
0.91
0.9
0.9
0.85
0.86
0.86
0.86
0.89
0.85
0.86
0.89
0.92
0.91
0.91
0.91
0.89
0.86
0.87
0.89
0.91
0.91
0.91
0.93
0.94
0.9
0.9
0.92
0.92
0.89
0.91
0.93
0.92
0.9
0.94
0.94
0.92
0.9
0.93
0.93
0.92
0.88
0.85
0.87
0.87
0.89
0.89
0.88
0.92
0.92
0.91
0.87
0.87
0.91
0.93
0.93
0.92
0.9
0.92
0.97
0.87
0.86
0.87
0.88
0.93
0.93
0.92
0.99
1.04
1.02
0.99
0.94
0.96
0.96
0.96
0.93
0.92
0.97
0.98
0.97
0.94
0.97
0.97
0.97
0.94
0.95
0.96
0.96
0.93
0.92
0.94
0.93
0.92
0.87
0.86
0.89
0.91
0.95
0.94
0.96
0.99
1.02
0.99
0.98
0.98
0.95
0.93
0.93
0.92
0.9
0.91
0.92
0.92
0.89
0.9
0.91
0.91
0.89
0.9
0.92
0.93
0.9
0.91
0.92
0.92
0.91
0.91
0.96
0.99
0.95
0.95
0.97
0.94
0.91
0.94
0.92
0.91
0.9
0.93
0.94
0.95
0.92
0.92
0.92
0.92
0.91
0.91
0.9
0.89
0.88
0.91
0.9
0.89
0.92
0.93
0.94
0.91
0.94
0.94
0.91
0.89
0.87
0.85
0.87
0.86
0.88
0.87
0.91
0.91
0.95
0.92
0.93
0.94
0.9
0.89
0.9
0.89
0.89
0.88
0.92
0.91
0.9
0.88
0.87
0.88
0.9
0.89
0.96
0.96
0.99
0.94
0.92
0.94
0.96
0.92
0.92
0.93
0.92
0.92
0.95
0.94
0.94
0.92
0.92
0.91
0.95
0.95
0.95
0.96
0.93
0.97
0.92
0.91
0.93
1.02
1.08
1.08
1.01
1.06
1.05
1.06
0.98
0.95
0.94
0.96
0.93
0.93
0.93
0.92
0.89
0.9
0.95
0.97
1
1
0.97
0.99
1
0.98
0.95
0.95
0.96
0.96
0.91
0.93
0.93
0.91
0.9
0.93
0.95
0.98
0.95
0.98
0.97
0.96
0.93
0.95
0.96
0.96
0.95
0.93
0.97
0.96
0.96
0.96
1
0.96
0.93
0.91
0.88
0.87
0.9
0.92
0.91
0.92
0.93
0.91
0.9
0.89
0.93
0.94
0.9
0.89
0.92
0.94
0.96
0.95
0.95
0.93
0.93
0.94
0.95
0.98
0.93
0.93
0.91
0.92
0.93
0.91
0.89
0.94
0.94
0.93
0.9
0.91
0.88
0.88
0.84
0.83
0.81
0.84
0.88
0.94
0.97
1.01
1.1
1.08
0.99
0.94
0.95
0.93
0.89
0.86
0.82
0.83
0.81
0.8
0.79
0.8
0.81
0.87
0.89
0.89
0.92
0.92
0.92
0.97
0.99
1.01
0.99
0.95
0.97
1.01
1.05
1.05
1.03
1.03
1.08
1.08
1.03
0.98
1
1.01
1.04
0.99
0.97
0.98
0.98
0.96
0.95
0.98
0.98
0.95
0.94
0.96
0.97
0.96
0.93
0.95
0.95
0.93
0.93
0.96
0.98
0.96
0.98
0.98
0.98
0.93
0.97
0.96
0.94
0.97
0.93
0.9
0.89
0.87
0.89
0.89
0.9
0.93
0.96
0.93
0.9
0.9
0.9
0.9
0.89
0.88
0.89
0.89
0.9
0.91
0.94
0.97
0.93
0.94
0.93
0.91
0.89
0.91
0.92
0.91
0.91
0.91
0.9
0.89
0.86
0.88
0.87
0.89
0.86
0.86
0.87
0.87
0.88
0.86
0.86
0.89
0.91
0.93
0.93
0.88
0.89
0.88
0.89
0.88
0.88
0.89
0.89
0.91
0.9
0.94
0.95
0.97
0.94
0.93
0.94
0.91
0.9
0.88
0.88
0.89
0.87
0.91
0.88
0.89
0.9
0.89
0.89
0.89
0.91
0.9
0.9
0.92
0.92
0.9
0.88
0.9
0.89
0.88
0.84
0.85
0.86
0.87
0.9
0.87
0.93
0.91
0.96
0.89
0.9
0.9
0.9
0.88
0.85
0.85
0.85
0.87
0.85
0.86
0.89
0.92
0.91
0.88
0.89
0.89
0.89
0.91
0.88
0.9
0.93
0.94
0.95
0.94
0.94
0.93
0.89
0.87
0.87
0.85
0.88
0.89
0.87
0.87
0.87
0.88
0.88
0.87
0.87
0.89
0.9
0.9
0.87
0.88
0.89
0.91
0.9
0.88
0.92
0.92
0.92
0.91
0.9
0.9
0.87
0.85
0.84
0.84
0.84
0.83
0.84
0.91
0.98
0.96
0.97
0.96
0.99
0.92
0.93
0.9
0.86
0.85
0.86
0.88
0.9
0.9
0.91
0.95
0.94
0.94
0.91
0.91
0.91
0.9
0.91
0.9
0.89
0.9
0.91
0.91
0.88
0.91
0.9
0.92
0.9
0.92
0.94
0.96
0.93
0.9
0.9
0.88
0.88
0.86
0.86
0.88
0.9
0.95
0.91
0.9
0.91
0.94
0.95
0.91
0.88
0.91
0.89
0.92
0.9
0.93
0.98
1.01
0.99
0.94
0.98
0.99
0.97
0.94
0.96
0.98
0.94
0.92
0.96
0.96
0.98
0.96
0.98
1.04
1.06
1.08
0.98
0.97
0.97
0.96
0.95
0.92
0.94
0.97
1
0.95
0.91
0.91
0.94
0.97
0.97
0.96
0.99
1.01
1.04
1.03
0.97
0.97
0.98
1.03
0.97
0.95
0.96
0.96
0.94
0.91
0.92
0.89
0.91
0.97
0.96
1.03
1.11
1.09
1.07
0.99
0.97
0.98
0.99
0.91
0.87
0.87
0.95
1.64
1.2
1
0.95
1.02
1.11
1
0.96
0.96
0.95
0.94
0.92
0.91
0.91
0.94
0.95
0.97
0.93
0.94
0.94
0.96
0.92
0.91
0.91
0.9
0.89
0.9
0.9
0.9
0.91
0.93
0.93
0.93
0.93
0.9
0.89
0.91
0.92
0.92
0.92
0.97
0.96
0.93
0.97
0.95
0.92
0.91
0.89
0.89
0.9
0.92
0.93
0.93
0.97
0.96
0.95
0.91
0.89
0.88
0.87
0.85
0.85
0.89
1.02
1.01
0.98
1.09
1.2
1.11
0.99
0.97
0.94
0.94
0.88
0.87
0.89
0.9
0.93
0.94
0.93
0.94
0.95
0.98
0.96
0.91
0.94
0.94
0.98
0.96
0.93
0.94
0.93
0.94
0.92
0.95
0.94
0.95
0.96
0.94
0.89
0.89
0.89
0.87
0.87
0.85
0.86
0.86
0.85
0.85
0.86
0.9
0.9
0.92
0.9
0.93
0.91
0.94
0.96
0.96
0.93
0.96
0.95
1.02
0.94
0.87
0.86
0.87
0.87
0.86
0.86
0.85
0.86
0.85
0.82
0.83
0.82
0.8
0.81
0.82
0.8
0.81
0.82
0.84
0.85
0.85
0.85
0.9
0.97
1.02
1.04
0.96
6
0.82
0.79
0.77
0.78
0.77
0.76
2.54
1.93
0.69
0.85
0.76
0.74
0.76
0.73
0.5
0.23
0.41
0.3
0.69
0.69
0.7
0.7
0.73
0.77
0.82
0.8
0.79
0.85
0.88
0.92
0.93
0.87
0.88
0.94
1.01
1.26
1.25
1.11
1.02
1.04
1.22
1.22
1.16
1.1
1.05
1.04
1.06
1.17
1.38
1.09
0.97
0.93
0.97
1.06
1.15
1.09
1.04
1.01
0.95
0.96
1.05
1.12
1.12
1.08
0.98
0.97
1
1.04
1.05
1.02
0.95
0.98
1.01
1.09
1.04
0.99
0.96
1.15
1.27
1.18
1.17
1.01
1.04
1.08
1.11
1.09
1.01
0.95
1.02
1.12
1.13
1.15
1.07
0.97
1
1.05
1.11
1.11
1
0.96
1.05
1.11
1.12
1.07
0.98
1.07
1.14
1.16
1.07
0.98
1.04
1.09
1.09
1.08
0.99
1.02
1.07
1.07
1.02
0.96
1.01
1.08
1.1
1.1
1.02
1.02
1.05
1.09
1.05
0.97
0.95
1
1.11
1.21
1.15
1.09
1.13
1.19
1.13
1
0.95
0.98
1.01
1.05
1.01
0.94
0.94
1
1.1
1.09
1.02
1.09
1.2
1.24
1.07
1.02
1.02
1.06
1.03
0.96
0.99
1.03
1.03
0.99
0.97
0.99
1
0.98
0.94
0.94
0.97
1.01
1.09
1.03
1.07
1.26
1.27
1.08
0.98
1
1.04
1.05
1.03
0.99
1.11
1.13
1.14
1.12
1.08
1
0.97
1.05
1.05
1.06
1.05
0.98
1.02
1.04
1.02
0.97
0.95
1.04
0.99
1.02
0.97
0.98
1.02
1.08
1.02
0.98
1.05
1.04
1.04
0.98
1.01
1.03
1.05
1.04
0.96
1.01
1.02
1.02
0.98
0.96
1.04
1.03
1.02
0.97
0.94
1
1.04
0.98
0.97
0.99
1.08
1.08
0.98
0.96
0.97
0.97
0.93
0.9
0.95
1.18
1.26
1.1
1.19
1.26
1.17
1.02
1.02
1.09
1.21
1.27
1.18
1.14
1.08
1.02
0.98
0.99
0.97
0.97
0.99
1.05
1.08
1
1.06
1.29
1.29
1.07
1
1.06
1.08
1.1
1
1.07
1.09
1.17
1.09
1
1.04
1.05
1.15
1.04
1.13
1.55
1.32
1.15
1.02
1.02
1.07
1.07
1.06
1
0.95
0.98
1.04
1.02
0.97
0.97
1.21
1.59
1.33
1.06
1.07
1.13
1.18
1.2
1.15
1.05
1.12
1.25
1.19
1.11
1.1
1.05
1.08
1.11
1.08
1.04
0.99
1.01
1.01
1.03
1.02
0.98
0.95
0.99
1.03
1.02
1.03
1
1.01
1.08
1.05
0.99
0.96
1.02
1
1.02
0.99
0.99
1.04
1.12
1.14
1.05
1
1.03
1.1
1.07
1
1.04
1.08
1.16
1.1
1.21
1.35
1.19
1.04
1.05
1.03
1.02
0.97
1.03
1.07
1.09
1.03
1.11
1.12
1.02
0.97
0.98
1.01
1
0.95
0.97
0.98
0.99
0.97
0.93
0.97
0.98
1.09
1.03
1.11
1.55
1.23
0.99
0.97
1.07
1.16
1.14
0.99
1.12
1.23
1.15
1.05
1.02
1.03
1.05
1
0.96
1.07
1.17
1.13
1.08
0.99
0.97
1.09
1.14
1.07
1.19
1.21
1.13
1.02
1.08
1.12
1.12
1.05
1.04
1.11
1.1
1.07
1.03
0.98
1.07
1.11
1.12
1.12
1.03
1.07
1.12
1.14
1.15
1.06
1.07
1.27
1.25
1.14
1.02
0.96
0.94
0.98
1.06
1.01
1.6
1.21
1.07
0.98
0.95
0.95
0.99
1.03
0.99
1.01
1
1.07
1.03
1.06
1.49
1.14
0.99
0.93
0.94
0.98
1.02
0.96
1.05
1.13
1.16
1.11
1
1.06
1.15
1.16
1.15
1.01
1.01
1.05
1.12
1.1
1.03
1.03
1.03
1.01
0.99
0.98
1.05
1.04
1.02
0.98
1.02
1.12
1.09
1.04
1.07
1.11
1.04
0.97
1.01
1.02
1.04
0.98
0.95
1.09
1.59
1.36
1.09
1.14
1.48
1.19
1.02
1.02
1.16
1.29
1.16
1.05
1.1
1.22
1.13
1.04
1.05
1.12
1.13
1.14
1.09
1.04
1.08
1.25
1.19
1.14
1.08
1.13
1.26
1.18
1.15
1.05
1.02
1.06
1.24
1.22
1.14
1.05
1.1
1.12
1.17
1.12
1.04
1.04
1.06
1.12
1.16
1.08
1.2
1.2
1.15
1.09
1.08
1.11
1.17
1.11
1.09
1.18
1.22
1.11
1.07
1.04
0.99
1.01
1.05
1.11
1.07
1
1.09
1.14
1.11
1.01
0.97
1.02
1.15
1.11
1.04
1.2
1.27
1.18
1.02
1.05
1.05
1.07
1.01
1.04
1.14
1.27
1.07
1.06
1.15
1.22
1.18
1.15
1.29
1.15
1.06
0.95
0.95
1.06
1.63
1.35
1.11
1.09
1.18
1.13
1.1
1.09
1.16
1.05
1.03
1.02
1.1
1.11
1.09
1.08
1.11
1.12
1.07
1
1.04
1.07
1.07
1.04
1
1.04
1.12
1.13
1.06
0.97
0.99
0.98
1.01
1.02
0.99
1.06
1.15
1.19
1.11
1.2
1.3
1.14
1.06
1.11
1.13
1.06
1.01
1.1
1.15
1.16
1.02
0.95
0.99
1.08
1.19
1.09
1.2
1.3
1.28
1.15
1.1
1.1
1.02
0.98
0.99
1.03
1.07
1.04
0.99
1.09
1.2
1.1
1.02
1.07
1.11
1.05
0.97
0.98
1.01
1.03
1.08
1.08
1.01
1.05
1.11
1.05
0.98
1.02
1.11
1.15
1.05
1.02
1.15
1.24
1.15
1.02
1.04
1.11
1.13
1.09
1
1.03
1.12
1.13
1.07
1.02
1.08
1.15
1.13
1.04
1.03
1.07
1.11
1.11
1.06
1.15
1.17
1.17
1.09
1.09
1.18
1.23
1.07
1.07
1.12
1.12
1.07
1.07
1.13
1.09
1.01
1.03
1.09
1.1
1.04
0.98
1.02
1.03
1.09
1.07
1.03
1.09
1.14
1.07
1
1.04
1.08
1.05
1.02
0.98
1.01
1.05
1.06
1.03
0.98
1.07
1.11
1.11
1.02
1.04
1.02
1.02
0.99
0.99
1.09
1.15
1.08
1.02
1.03
1.06
1.11
1.09
1
1.03
1.01
1
0.98
0.96
1.08
1.23
1.11
0.98
1.01
1.07
1.23
1.2
1.1
1.61
1.44
1.11
0.99
1.09
1.15
1.22
1.12
1.19
1.25
1.2
1.13
1.08
1.2
1.25
1.14
1.07
1.03
1.07
1.11
1.15
1.09
1.61
1.39
1.11
1
1.09
1.11
1.25
1.17
1.13
1.12
1.12
1.04
1.13
1.17
1.11
1.02
1.02
1
0.98
0.95
0.96
1
1.06
1.12
1.06
1
1.07
1.13
1.04
1
1.06
1.07
1.03
1.03
1.16
1.22
1.19
1.05
1.01
1.05
1.13
1.1
1.06
1.24
1.32
1.25
1.11
1.01
1.04
1.1
1.07
1.01
1.05
1.08
1.05
0.98
0.96
1.03
1.07
1.13
1.04
0.95
0.93
0.99
1.12
1.11
1.06
1.06
1.31
1.34
1.2
1.03
1.08
1.18
1.19
1.08
0.98
1.07
1.12
1.14
1.08
0.98
0.98
1.1
1.15
1.13
1.07
1.01
1.07
1.11
1.13
1.12
1.03
1.05
1.08
1.08
1.07
1
1.01
1.09
1.09
1.09
1.09
1.06
1.1
1.05
1.07
1.23
1.3
1.13
1.08
1.1
1.14
1.14
1.03
1.07
1.19
1.15
1.07
0.98
1.1
1.21
1.27
1.12
1
1.07
1.16
1.19
1.12
1.04
1.07
1.15
1.17
1.09
1.01
1.1
1.1
1.07
1.01
1.09
1.18
1.21
1.07
1.01
1.06
1.09
1.09
1.04
1.08
1.25
1.32
1.19
1.03
1.04
1.04
1.09
1.05
0.98
1.06
1.11
1.1
1.05
0.99
1.07
1.15
1.14
1.02
1.03
1.06
1.09
1.08
0.99
1.01
1.05
1.08
1.01
0.97
1
1.07
1.11
1.13
1.01
0.97
1.03
1.13
1.13
1.1
1.03
1.16
1.17
1.17
1.09
0.99
0.97
1
1.02
0.99
0.94
0.96
1.1
1.21
1.14
1.06
1.13
1.13
1.11
1.01
1.03
1.06
1.08
1.12
1.03
1.09
1.14
1.11
1.06
0.98
1
1.07
1.08
1.03
0.98
1.03
1.15
1.15
1.04
1.01
1.05
1.09
1.05
0.99
1
0.99
1
1
0.98
1.02
1.08
1.12
1.08
1.01
1.1
1.14
1.15
1.03
1.02
1.05
1.09
1.08
1.03
0.99
1.08
1.15
1.15
1.05
1.06
1.14
1.14
1.09
1.02
1.07
1.06
1.01
0.95
1
1.08
1.13
1.05
1.08
1.1
1.01
0.97
1.05
1.06
1.06
0.99
0.98
1.07
1.09
1.06
1
1.08
1.07
1.04
1.02
1.02
1.12
1.2
1.17
1.04
1.01
1.05
1.05
0.98
0.96
1
1.01
0.97
0.92
0.94
0.95
0.95
0.94
0.93
0.99
1.05
1.04
1
1.06
1.12
1.14
1.14
1.05
1.12
1.15
1.19
1.1
1.05
1.2
1.18
1.1
1
0.98
0.98
0.99
1.05
1.1
1.09
1.21
1.29
1.18
1.01
1
1
1
0.97
0.95
1.22
1.62
1.66
1.32
1.04
1.15
1.21
1.14
1.09
1.06
1
1.04
1.14
1.11
1.1
1.08
1.05
1.07
1.08
1.06
1.06
1.01
0.96
0.96
0.97
0.98
0.97
0.94
0.94
0.99
1.02
1.03
0.99
1.04
1.07
1.08
1.05
1
1.07
1.12
1.12
1.08
1.01
1.04
1.09
1.04
1.04
1.08
1.09
1.07
1.02
1.07
1.08
1.1
1.04
1.02
1.08
1.15
1.13
1.07
1.08
1.2
1.12
1.06
1
1.11
1.46
1.17
1.01
1.02
1.11
1.2
1.16
1.04
1.02
1.05
1.03
0.99
1.02
1.02
1.04
1.03
0.99
1.01
1.08
1.06
1.05
1.02
0.96
0.97
1.03
1.04
1.09
1.04
1.06
1.17
1.26
1.11
1.03
1.04
1.1
1.13
1.14
1.07
1.29
1.33
1.14
1.01
1.03
1.07
1.08
1.04
0.99
1.01
1.01
1.03
1
0.97
0.98
1.01
1.03
0.99
0.96
0.93
0.99
1.02
1.05
1.01
1.08
1.1
1.09
1.02
1.02
1.05
1.01
0.96
0.95
0.97
0.98
0.97
0.95
1.04
1.14
1.14
1.03
0.97
1.04
1.18
1.19
1.12
1.08
1.19
1.26
1.13
1.03
1.02
1.06
1.07
1.03
1.01
1.03
1.06
1.04
1.01
0.99
1.01
1.01
0.99
0.95
0.98
1.03
1.03
1.05
0.98
1.02
1.05
1.05
1.03
1.01
0.97
1.02
1.05
1.07
1.03
0.99
1.03
1.05
1.04
1.01
0.99
1.02
1.08
1.15
1.1
1.03
1.07
1.08
1.05
1.02
0.97
0.97
0.99
1
0.99
0.97
1.02
1.09
1.08
1.08
1.03
1.08
1.14
1.11
1.07
1.1
1.13
1.07
1.02
1.06
1.12
1.13
1.06
1.07
1.09
1.12
1.08
1.04
1.03
1.08
1.08
1.06
1
1.03
1.11
1.15
1.1
1.01
1.08
1.08
1.07
1.02
1
1.05
1.1
1.12
1.04
0.97
1.04
1.07
1.13
1.06
1.02
1.07
1.14
1.11
1
1
1.01
1.06
1.08
1
1
1.06
1.19
1.1
1.19
1.22
1.26
1.13
1.02
1.09
1.16
1.11
0.98
1.01
1.05
1.1
1.14
1.07
1.07
1.14
1.16
1.11
1.03
1.06
1.11
1.09
1.03
1.03
1.07
1.07
1.05
0.99
1.03
1.08
1.05
1.01
0.98
