480.38
9.94
2.98
0.46
0.3
0.38
1.04
0.52
0.38
2.5
0.24
1.14
1.07
1.45
0.34
0.96
0.51
251.2
1.84
0.48
1.36
1.22
0.83
0.76
0.76
0.77
0.79
0.81
0.82
0.82
0.81
0.81
0.8
0.75
0.76
0.73
0.71
0.7
0.72
0.81
0.84
0.84
0.87
0.87
0.86
0.79
0.79
0.74
0.74
0.78
0.82
0.88
0.91
0.9
0.91
0.9
0.89
0.88
0.88
0.86
0.86
0.87
0.83
0.81
0.85
0.88
0.86
0.9
0.84
0.88
0.87
0.83
0.86
0.85
0.85
0.86
0.86
0.85
0.84
0.83
0.78
0.78
0.77
0.78
0.79
0.79
0.8
0.79
0.78
0.75
0.73
0.71
0.69
0.67
0.69
0.81
0.87
0.9
0.91
0.85
0.78
0.74
0.73
0.74
0.72
0.73
0.73
0.73
0.74
0.75
0.75
0.73
0.72
0.72
0.74
0.75
0.78
0.79
0.8
0.8
0.78
0.8
0.84
0.88
0.87
0.86
0.86
0.85
0.84
0.84
0.83
0.83
0.83
0.82
0.82
0.8
0.79
0.79
0.83
0.89
0.89
0.88
0.86
0.83
0.81
0.77
0.76
0.77
0.81
0.83
0.82
0.83
0.88
0.9
0.9
0.86
0.88
0.83
0.81
0.82
0.81
0.8
0.8
0.81
0.78
0.75
0.74
0.75
0.77
0.81
0.83
0.84
0.82
0.83
0.8
0.81
0.8
0.79
0.78
0.77
0.78
0.8
0.83
0.82
0.82
0.8
0.77
0.74
0.72
0.7
0.69
0.72
0.83
0.89
0.91
0.9
0.9
0.88
0.85
0.82
0.8
0.83
0.86
0.92
0.92
0.89
0.88
0.84
0.84
0.84
0.84
0.85
0.85
0.86
0.82
0.79
0.8
0.8
0.81
0.78
0.76
0.75
0.79
0.77
0.79
0.8
0.81
0.82
0.84
0.81
0.79
0.77
0.77
0.84
0.86
0.85
0.85
0.86
0.84
0.85
0.84
0.83
0.82
0.82
0.79
0.78
0.78
0.8
0.83
0.86
0.85
0.84
0.83
0.8
0.8
0.81
0.81
0.83
0.82
0.84
0.83
0.83
0.81
0.78
0.77
0.77
0.78
0.83
0.85
0.85
0.82
0.81
0.79
0.82
0.86
0.86
0.86
0.85
0.83
0.83
0.83
0.82
0.82
0.82
0.82
0.78
0.78
0.8
0.82
0.82
0.8
0.82
0.32
0.51
0.83
0.8
0.83
0.24
0.55
0.8
1.03
0.34
0.46
1.31
0.95
0.83
0.85
1.45
14.33
0.93
0.84
0.78
0.77
0.74
0.73
0.73
0.72
0.71
0.69
0.7
0.71
0.74
0.74
0.75
0.76
0.78
0.79
0.81
0.81
0.79
0.77
0.75
0.75
0.77
0.85
0.9
0.88
0.89
0.88
0.86
0.86
0.83
0.81
0.79
0.8
0.82
0.94
0.91
0.89
0.88
0.85
0.83
0.82
0.82
0.79
0.78
0.78
0.77
0.81
0.86
0.88
0.86
0.86
0.86
0.84
0.84
0.82
0.82
0.81
0.8
0.8
0.78
0.78
0.77
0.82
0.85
0.86
0.85
0.85
0.81
0.79
0.79
0.79
0.82
0.84
0.84
0.84
0.84
0.84
0.82
0.8
0.82
0.83
0.84
0.83
0.84
0.81
0.79
0.77
0.79
0.81
0.83
0.85
0.83
0.81
0.81
0.81
0.8
0.79
0.78
0.76
0.77
0.74
0.75
0.74
0.75
0.77
0.78
0.79
0.78
0.78
0.76
0.76
0.75
0.77
0.79
0.78
0.8
0.82
0.82
0.83
0.82
0.81
0.82
0.83
0.84
0.83
0.81
0.83
0.83
0.85
0.86
0.84
0.81
0.82
0.82
0.81
0.79
0.82
0.85
0.85
0.84
0.82
0.81
0.82
0.82
0.8
0.78
0.78
0.77
0.75
0.75
0.74
0.75
0.73
0.75
0.76
0.8
0.79
0.79
0.77
0.76
0.77
0.78
0.76
0.77
0.76
0.77
0.76
0.77
0.78
0.77
0.77
0.77
0.75
0.75
0.76
0.74
0.75
0.73
0.71
0.71
0.72
0.69
0.74
0.71
0.7
0.7
0.71
0.69
0.68
0.69
0.68
0.68
0.68
0.68
0.68
0.69
0.69
0.69
0.7
0.72
0.71
0.72
0.7
0.67
0.72
0.68
0.64
0.57
0.77
0.65
0.65
0.65
0.65
0.64
0.64
0.64
0.63
0.63
0.63
0.65
0.67
0.71
0.72
0.72
0.74
0.54
0.94
0.77
0.75
0.74
0.74
0.69
0.71
0.71
0.73
0.75
0.76
0.77
0.78
0.79
0.76
0.76
0.77
0.78
0.8
0.8
0.35
0.44
0.78
0.78
0.8
0.84
0.81
0.79
0.78
0.8
0.82
0.82
0.82
0.8
0.81
0.8
0.81
0.8
0.82
0.82
0.81
0.8
0.81
0.83
0.85
0.87
0.86
0.83
0.82
0.81
0.78
0.79
0.81
0.82
0.79
0.81
0.82
0.83
0.85
0.82
0.78
0.75
0.74
0.75
0.75
0.79
0.81
0.85
0.83
0.35
0.47
0.81
0.78
0.77
0.75
0.74
0.73
0.73
0.73
0.72
0.74
0.73
0.75
0.78
0.83
0.83
0.83
0.82
0.79
0.75
0.75
0.75
0.77
0.76
0.78
0.77
1.58
0.77
0.74
0.71
0.7
0.69
0.67
0.68
0.69
0.68
0.67
0.68
0.68
0.69
0.7
0.7
0.71
0.71
0.7
0.72
0.75
0.75
0.8
0.83
0.83
0.8
0.79
0.77
0.73
0.71
0.69
0.67
0.68
0.67
0.66
0.65
0.64
0.64
0.63
0.63
0.64
0.65
0.68
0.66
0.66
0.71
0.7
0.7
0.75
0.77
0.75
0.78
0.75
0.74
0.74
0.75
0.75
0.73
0.72
0.72
0.7
0.71
0.71
0.7
0.72
0.7
0.71
0.72
0.71
0.7
0.67
0.66
0.67
0.69
0.72
0.75
0.77
0.77
0.76
0.73
0.74
0.83
0.81
0.8
0.21
0.55
0.76
0.74
0.8
0.83
0.81
0.79
0.77
0.76
0.74
0.75
0.77
0.79
0.8
0.79
0.79
0.79
0.8
0.86
0.89
0.88
0.87
0.86
0.82
0.79
0.79
0.78
0.81
0.86
0.86
0.87
0.85
0.84
0.83
0.8
0.79
0.79
0.83
0.85
0.89
0.88
0.84
0.83
0.84
0.85
0.83
0.82
0.76
0.81
0.75
0.74
0.46
0.79
0.89
0.7
0.69
0.67
0.7
0.66
0.67
0.68
0.69
0.68
0.68
0.66
0.66
0.68
0.69
0.73
0.71
0.76
0.75
0.29
0.28
0.93
0.75
0.76
0.74
0.7
0.71
0.67
0.67
0.68
0.7
0.74
0.74
0.74
0.74
0.74
0.78
0.79
0.8
0.79
0.77
0.77
0.77
0.78
0.78
0.77
0.75
0.77
0.79
0.82
0.82
0.81
0.82
0.81
0.82
0.81
0.81
0.79
0.79
0.8
0.81
0.82
0.81
0.79
0.78
0.78
0.81
0.82
0.83
0.8
0.81
0.56
0.26
0.83
0.85
0.82
0.83
0.82
0.78
0.81
0.82
0.84
0.81
0.81
0.82
0.83
0.81
0.8
0.81
0.83
0.81
0.8
0.82
0.83
0.85
0.83
0.79
0.8
0.81
0.83
0.82
0.8
0.82
0.83
0.82
0.81
0.82
0.83
0.82
0.85
0.88
0.86
0.83
0.86
0.84
0.82
0.83
0.83
0.82
0.8
0.79
0.84
0.81
0.8
0.8
0.8
0.83
0.84
0.83
0.78
0.76
0.77
0.77
0.76
0.74
0.77
0.77
0.77
0.78
0.8
0.8
0.81
0.81
0.82
0.83
0.81
0.81
0.79
0.78
0.78
0.77
0.73
0.73
0.75
0.78
0.79
0.78
0.77
0.85
0.88
0.86
0.92
0.93
0.94
0.9
0.9
0.91
0.91
0.88
0.86
0.88
0.9
0.91
0.91
0.91
0.91
0.89
0.88
0.83
0.81
0.87
0.89
0.9
0.88
0.85
0.87
0.87
0.88
0.85
0.82
0.86
0.88
0.92
0.9
0.9
0.89
0.88
0.85
0.82
0.83
0.78
0.82
0.88
0.88
0.89
0.83
0.79
0.78
0.75
0.74
0.76
0.76
0.78
0.8
0.84
0.85
0.84
0.85
0.83
0.82
0.83
0.82
0.84
0.82
0.81
0.8
0.81
0.8
0.78
0.88
0.96
0.92
0.92
0.86
0.9
0.87
0.85
0.81
0.77
0.75
0.78
0.79
0.8
0.82
0.91
0.93
0.93
0.91
0.88
0.86
0.83
0.8
0.83
0.83
0.88
0.86
0.84
0.82
0.83
0.83
0.79
0.77
0.79
0.79
0.8
0.81
0.81
0.82
0.77
0.78
0.82
0.88
0.88
0.86
0.86
0.85
0.84
0.83
0.82
0.81
0.82
0.83
0.81
0.8
0.82
0.87
0.88
0.89
0.85
0.8
0.76
0.76
0.77
0.81
0.84
0.85
0.86
0.84
0.83
0.79
0.8
0.8
0.91
0.94
0.92
0.94
0.92
0.9
0.85
0.83
0.85
0.87
0.89
0.88
0.89
0.85
0.87
0.84
0.8
0.82
0.83
0.82
0.81
0.83
0.82
0.81
0.8
0.82
0.83
0.84
0.86
0.84
0.83
0.8
0.83
0.84
0.86
0.84
0.86
0.87
0.88
0.83
0.83
0.82
0.82
0.82
0.84
0.81
0.8
0.78
0.78
0.81
0.78
0.74
0.72
0.72
0.73
0.75
0.78
0.77
0.79
0.79
0.81
0.81
0.8
0.33
0.46
0.78
0.77
0.78
0.81
0.82
0.83
0.84
0.83
0.83
0.82
0.82
0.81
0.84
0.81
0.79
0.82
0.84
0.89
0.9
0.93
0.9
0.85
0.85
0.83
0.84
0.83
0.82
0.82
0.8
0.83
0.84
0.85
0.89
0.88
0.88
0.87
0.83
0.84
0.81
0.82
0.82
0.81
0.81
0.79
0.77
0.78
0.79
0.79
0.79
0.81
0.78
0.77
0.75
0.73
0.69
0.68
0.7
0.71
0.72
0.72
0.71
0.75
0.77
0.82
0.81
0.79
0.79
0.79
0.96
1.01
0.91
0.92
0.91
0.88
0.86
0.81
0.81
0.87
0.94
0.91
0.89
0.87
0.81
0.75
0.75
0.77
0.83
0.9
0.87
0.88
0.87
0.84
0.81
0.8
0.83
0.87
0.89
0.89
0.88
0.86
0.85
0.84
0.89
0.94
0.94
0.95
0.91
0.9
0.89
0.83
0.83
0.84
0.87
0.96
0.94
0.93
0.92
0.91
0.88
0.84
0.82
0.82
0.86
1
0.98
0.95
0.94
0.94
0.9
0.88
0.82
0.82
0.84
0.88
0.91
0.95
0.93
0.92
0.9
0.9
0.86
0.83
0.82
0.86
0.87
0.94
0.92
0.92
0.9
0.87
0.85
0.84
0.84
0.83
0.82
0.79
0.81
0.84
0.89
0.96
0.93
0.93
0.9
0.88
0.86
0.84
0.81
0.79
0.8
0.81
0.83
0.91
0.96
0.94
0.94
0.92
0.91
0.85
0.82
0.84
0.79
0.79
0.75
0.74
0.76
0.8
0.79
0.8
0.8
0.81
0.86
0.9
0.9
0.89
0.89
0.85
0.83
0.79
0.8
0.85
0.87
0.85
0.83
0.85
0.99
1.27
1
0.95
0.91
0.84
0.8
0.78
2.26
1.09
0.98
0.93
0.85
0.81
0.77
0.78
1.06
1.04
0.93
0.91
0.86
0.82
0.77
0.76
0.73
0.73
0.72
0.74
0.78
0.8
0.78
0.77
0.77
0.74
0.72
0.7
0.69
0.67
0.67
0.72
1.84
0.97
0.96
0.98
0.97
0.94
0.93
0.92
0.9
0.89
0.87
0.89
0.9
0.9
0.9
0.9
0.91
0.89
0.89
0.89
0.87
0.87
0.85
0.85
0.84
0.84
0.83
0.86
0.84
0.86
0.84
0.84
0.83
0.82
0.82
0.81
0.82
0.82
0.81
0.83
0.82
0.83
0.82
0.81
0.83
0.83
0.84
0.86
0.86
0.87
0.88
0.88
0.86
0.85
0.84
0.85
0.86
0.86
0.85
0.83
0.81
0.82
0.82
0.82
0.84
0.84
0.85
0.84
0.85
0.83
0.83
0.83
0.83
0.83
0.81
0.81
0.81
0.81
0.82
0.81
0.81
0.81
0.82
0.81
0.8
0.8
0.81
0.83
0.86
0.87
0.85
0.86
0.83
0.82
0.81
0.81
0.81
0.81
0.83
0.84
0.83
0.85
0.84
0.82
0.77
0.76
0.72
0.7
0.7
0.74
0.76
0.76
0.73
0.72
0.73
0.71
0.67
0.73
0.77
0.77
0.75
0.73
0.73
0.8
0.8
0.82
0.83
0.81
0.8
0.8
0.82
0.86
0.86
0.87
0.85
0.85
0.85
0.85
0.83
0.82
0.78
0.82
0.81
0.8
0.8
0.8
0.81
0.82
0.83
0.81
0.79
0.77
0.75
0.74
0.73
0.74
0.75
0.8
0.81
0.8
0.8
0.77
0.75
0.73
0.71
0.72
0.74
0.76
0.74
0.68
0.65
0.69
0.7
0.7
0.69
0.7
0.7
0.73
0.74
0.79
0.79
0.78
0.75
0.75
0.72
0.7
0.69
0.7
0.74
0.8
0.85
0.83
0.81
0.78
0.76
0.74
0.71
0.7
0.75
0.78
0.79
0.77
0.75
0.75
0.73
0.75
0.77
0.79
0.77
0.73
0.66
0.63
0.66
0.67
0.69
0.68
0.67
0.68
0.69
0.68
0.7
0.7
0.69
0.69
0.66
0.65
0.63
0.61
0.62
0.61
0.63
0.64
0.65
0.69
0.68
0.69
0.22
0.46
0.67
0.63
0.67
0.64
0.62
0.67
0.65
0.65
0.65
0.58
0.73
0.64
0.68
0.67
0.67
0.67
0.68
0.68
0.69
0.69
0.7
0.68
0.66
0.66
0.67
0.67
0.67
0.64
0.63
0.64
0.66
0.7
0.73
0.74
0.76
0.78
0.8
0.8
0.8
0.75
0.76
0.83
0.9
0.88
0.87
0.84
0.82
0.79
0.78
0.77
0.77
0.77
0.78
0.77
0.76
0.77
0.76
0.8
0.78
0.77
0.76
0.77
0.76
0.79
0.77
0.77
0.76
0.77
0.76
0.77
0.78
0.78
0.79
0.81
0.77
0.75
0.75
0.75
0.8
0.82
0.79
0.78
0.8
0.79
0.8
0.79
0.77
0.77
0.79
0.8
0.82
0.81
0.82
0.82
0.76
0.77
0.77
0.81
0.82
0.84
0.83
0.82
0.78
0.78
0.77
0.77
0.78
0.78
0.78
0.77
0.76
0.78
0.8
0.8
0.8
0.78
0.78
0.79
0.78
0.78
0.79
0.82
0.83
0.83
0.84
0.81
0.76
0.78
0.82
0.77
0.73
0.72
0.72
0.73
0.73
0.73
0.73
0.78
0.8
0.82
0.82
0.79
0.8
0.8
0.78
0.77
0.77
0.81
0.87
0.85
0.85
0.84
0.81
0.79
0.78
0.77
0.77
0.78
0.9
0.92
0.9
0.91
0.92
0.89
0.87
0.81
0.81
0.79
0.79
0.79
0.81
0.91
0.89
0.91
0.9
0.9
0.88
0.87
0.81
0.81
0.8
0.78
0.77
0.8
0.91
0.87
0.88
0.87
0.82
0.82
0.82
0.82
0.8
0.8
0.8
0.85
0.88
0.86
0.81
0.84
0.84
0.83
0.82
0.8
0.79
0.78
0.79
0.88
0.87
0.88
0.86
0.82
0.84
0.83
0.82
0.82
0.82
0.81
0.81
0.82
0.81
0.78
0.78
0.78
0.82
0.86
0.81
0.75
0.74
0.75
0.75
0.77
0.76
0.76
0.75
0.76
0.83
0.82
0.82
0.81
0.8
0.79
0.78
0.77
0.77
0.79
0.87
0.86
0.86
0.83
0.84
0.83
0.81
0.81
0.8
0.79
0.78
0.77
0.81
0.92
0.87
0.87
0.81
0.83
0.81
0.79
0.78
0.79
0.92
0.91
0.9
0.88
0.86
0.82
0.83
0.81
0.79
0.77
0.78
0.79
0.89
0.97
0.93
0.91
0.84
0.86
0.85
0.84
0.85
0.85
0.83
0.83
0.83
0.84
0.82
0.82
0.82
0.82
0.85
0.93
0.93
0.91
0.89
0.83
0.84
0.83
0.83
0.8
0.8
0.8
0.79
0.8
0.89
0.87
0.88
0.89
0.83
0.84
0.82
0.8
0.8
0.8
0.87
0.85
0.86
0.86
0.8
0.82
0.8
0.82
0.94
0.94
0.91
0.9
0.85
0.84
0.82
0.82
0.81
0.82
0.83
0.8
0.8
0.81
0.87
0.87
0.87
0.85
0.83
0.83
0.81
0.8
0.77
0.73
0.71
0.73
0.75
0.79
0.85
0.88
0.87
0.87
0.86
0.81
0.82
0.81
0.79
0.83
0.89
0.9
0.89
0.87
0.83
0.82
0.85
0.8
0.81
0.79
0.83
0.9
0.9
0.9
0.9
0.86
0.83
0.86
0.82
0.83
0.82
0.81
0.81
0.83
0.89
1
0.96
0.96
0.94
0.91
0.9
0.89
0.85
0.85
0.84
0.83
0.82
0.82
0.82
0.85
0.89
0.86
0.87
0.86
0.81
0.83
0.82
0.8
0.81
0.8
0.81
0.81
0.81
0.8
0.81
0.82
0.81
0.83
0.79
0.82
0.79
0.82
0.81
0.81
0.79
0.79
0.79
0.78
0.79
0.79
0.81
0.8
0.82
0.78
0.77
0.74
0.51
0.87
0.71
0.7
0.71
0.7
0.71
0.73
0.74
0.76
0.74
0.72
0.71
0.7
0.69
0.68
0.68
0.74
0.91
0.86
0.87
0.85
0.85
0.83
0.82
0.79
0.79
0.78
0.78
0.8
0.8
0.8
0.78
0.78
0.79
0.8
0.86
0.86
0.87
0.86
0.86
0.83
0.82
0.81
0.82
0.82
0.9
0.9
0.91
0.91
0.9
0.89
0.85
0.82
0.82
0.82
0.87
0.88
0.88
0.88
0.87
0.86
0.84
0.84
0.84
0.82
0.85
0.84
0.84
0.82
0.82
0.82
0.84
0.95
0.9
0.91
0.89
0.86
0.85
0.84
0.83
0.82
0.82
0.84
0.92
0.88
0.88
0.84
0.85
0.83
0.81
0.8
0.8
0.81
0.81
0.97
0.98
0.92
0.89
0.83
0.79
0.76
0.76
0.77
0.78
0.77
0.78
0.78
0.81
0.89
0.86
0.83
0.89
0.82
0.82
0.81
0.82
0.8
0.84
0.86
0.93
0.88
0.88
0.84
0.82
0.82
0.82
0.8
0.81
0.83
0.92
0.89
0.89
0.88
0.84
0.87
0.85
0.83
0.84
0.83
0.81
0.82
0.81
0.83
0.91
0.89
0.88
0.89
0.84
0.85
0.83
0.82
0.81
0.81
0.81
0.8
0.81
0.81
0.85
1.05
0.96
0.93
0.91
0.9
0.85
0.83
0.82
0.8
0.8
0.79
0.79
0.79
0.82
0.86
0.92
0.85
0.84
0.85
0.83
0.82
0.8
0.8
0.79
0.78
0.8
0.85
0.9
0.83
0.85
0.85
0.83
0.82
0.81
0.8
0.82
0.88
0.92
0.85
0.91
0.83
0.83
0.84
0.81
0.81
0.8
0.83
0.92
0.89
0.83
0.89
0.84
0.82
0.81
0.81
0.8
0.8
0.86
0.9
0.83
0.86
0.86
0.85
0.84
0.83
0.82
0.82
0.8
0.79
0.8
0.81
0.86
0.93
0.83
0.9
0.82
0.84
0.82
0.81
0.81
0.79
0.79
0.8
0.82
0.92
0.88
0.88
0.85
0.85
0.84
0.83
0.82
0.83
0.8
0.81
0.79
0.79
0.82
0.92
0.91
0.89
0.9
0.85
0.85
0.83
0.83
0.82
0.79
0.8
0.8
0.81
0.9
0.88
0.84
0.85
0.85
0.82
0.81
0.8
0.79
0.8
0.9
0.85
0.83
0.86
0.86
0.86
0.85
0.83
0.81
0.8
0.8
0.81
0.91
0.9
0.89
0.84
0.85
0.82
0.52
1.78
0.7
0.69
0.73
0.76
0.76
0.77
0.77
0.76
0.76
0.74
0.73
0.74
0.89
0.88
0.85
0.82
0.82
0.81
0.81
0.8
0.81
0.85
0.93
0.91
0.91
0.86
0.88
0.86
0.85
0.86
0.84
0.84
0.84
0.83
1
0.95
0.93
0.88
0.88
0.87
0.82
0.79
0.77
0.78
0.79
0.83
0.9
0.95
0.94
0.89
0.94
0.84
0.87
0.86
0.83
0.83
0.83
0.85
0.95
0.96
0.95
0.93
0.92
0.87
0.87
0.84
0.84
0.83
0.85
0.94
0.92
0.91
0.88
0.87
0.86
0.87
0.86
0.85
0.87
0.99
0.93
0.91
0.85
0.87
0.87
0.84
0.84
0.83
0.82
0.86
0.95
0.9
0.88
0.89
0.84
0.86
0.83
0.82
0.83
0.83
0.81
0.82
0.81
0.79
0.82
0.8
0.77
0.76
0.78
0.79
0.8
0.79
0.78
0.78
0.8
0.96
0.93
0.91
0.91
0.89
0.86
0.84
0.85
0.84
0.84
0.85
0.82
0.84
0.85
0.86
0.94
0.95
0.95
0.92
0.87
0.87
0.86
0.89
0.82
0.83
0.83
0.82
0.88
0.94
0.9
0.91
0.87
0.9
0.9
0.87
0.85
0.84
0.85
0.88
0.95
0.9
0.88
0.89
0.94
0.84
0.87
0.86
0.85
0.85
0.9
0.96
0.94
0.94
0.92
0.91
0.88
0.88
0.85
0.86
0.84
0.83
0.84
0.92
0.9
0.9
0.88
0.88
0.87
0.86
0.85
0.83
0.81
0.77
0.76
0.76
0.77
0.78
0.84
0.86
0.87
0.87
0.84
0.87
0.85
0.84
0.83
0.81
0.82
0.84
0.92
0.91
0.91
0.87
0.88
0.86
0.87
0.85
0.85
0.85
0.83
0.83
0.81
0.83
0.92
0.9
0.9
0.89
0.88
0.84
0.86
0.84
0.84
0.82
0.81
0.82
0.88
0.89
0.9
0.89
0.86
0.86
0.85
0.84
0.84
0.82
0.82
0.86
0.88
0.83
0.85
0.83
0.82
0.83
0.82
0.91
0.91
0.9
0.88
0.88
0.87
0.86
0.85
0.85
0.84
0.85
0.96
0.94
0.95
0.93
0.89
0.88
0.89
0.88
0.86
0.86
0.86
0.87
0.85
0.83
0.84
0.85
0.94
0.9
0.88
0.93
0.85
0.89
0.86
0.85
0.85
0.86
0.86
0.86
0.85
0.84
0.85
0.81
0.78
0.76
0.77
0.78
0.77
0.82
0.87
0.88
0.86
0.85
0.83
0.84
0.84
0.83
0.82
0.81
0.83
0.9
0.91
0.9
0.89
0.84
0.88
0.86
0.84
0.85
0.85
0.86
0.85
0.84
0.85
0.85
0.84
0.84
0.82
0.83
0.94
0.91
0.87
0.87
0.88
0.88
0.89
0.88
0.87
0.86
0.89
0.9
0.98
0.93
0.87
0.91
0.85
0.85
0.85
0.97
0.93
0.91
0.86
0.87
0.89
0.9
0.88
0.86
0.84
0.85
0.86
0.94
0.87
0.97
0.86
0.91
0.85
0.88
0.85
0.83
0.83
0.83
0.83
0.92
0.93
0.95
0.93
0.92
0.87
0.87
0.87
0.86
0.85
0.86
0.84
0.83
0.83
0.82
0.84
0.86
0.94
0.91
0.87
0.87
0.86
0.87
0.87
0.85
0.85
0.85
0.83
0.83
0.82
0.83
0.89
0.92
0.87
0.93
0.86
0.87
0.87
0.88
0.85
0.86
0.84
0.83
0.83
0.82
0.8
0.78
0.75
0.75
0.75
0.76
0.77
0.82
0.85
0.82
0.82
0.85
0.83
0.8
0.8
0.79
0.81
0.91
0.91
0.9
0.87
0.87
0.87
0.85
0.86
0.85
0.83
0.84
0.82
0.84
0.96
0.93
0.93
0.9
0.85
0.87
0.85
0.83
0.84
0.83
0.85
0.85
0.86
0.83
0.83
0.83
0.86
0.91
0.9
0.88
0.85
0.87
0.85
0.85
0.84
0.85
0.84
0.82
0.83
0.84
0.87
0.89
0.88
0.86
0.86
0.85
0.86
0.86
0.83
0.85
0.85
0.85
0.83
0.82
0.83
0.84
0.89
0.89
0.9
0.89
0.86
0.84
0.85
0.84
0.83
0.82
0.82
0.83
0.88
0.9
0.92
0.91
0.87
0.87
0.87
0.86
0.86
0.83
0.84
0.82
0.84
0.88
0.89
0.88
0.85
0.87
0.87
0.86
0.83
0.84
0.85
0.86
0.91
0.86
0.88
0.88
0.85
0.87
0.85
0.85
0.84
0.87
0.91
0.9
0.9
0.9
0.87
0.87
0.85
0.86
0.85
0.85
0.84
0.85
0.85
0.85
0.91
0.9
0.89
0.88
0.84
0.84
0.82
0.78
0.75
0.75
0.78
0.78
0.8
0.87
0.88
0.88
0.91
0.92
0.91
0.86
0.85
0.86
0.84
0.88
0.89
0.91
0.85
0.86
0.87
0.86
0.87
0.84
0.85
0.83
0.84
0.9
0.96
0.95
0.93
0.93
0.92
0.88
0.87
0.87
0.86
0.87
0.85
0.84
0.85
0.85
0.86
0.89
0.91
0.88
0.85
0.86
0.86
0.87
0.86
0.83
0.86
0.84
0.84
0.84
0.89
0.95
0.92
0.93
0.91
0.91
0.88
0.87
0.89
0.87
0.88
0.86
0.85
0.87
0.88
0.96
0.93
0.91
0.92
0.91
0.91
0.89
0.86
0.87
0.89
0.97
0.94
0.93
0.92
0.91
0.89
0.87
0.87
0.85
0.88
0.93
0.92
0.9
0.89
0.9
0.92
0.88
0.87
0.89
0.9
0.91
0.89
0.88
0.87
0.86
0.88
0.93
0.91
0.91
0.91
0.9
0.88
0.89
0.87
0.85
0.85
0.85
0.87
0.93
0.92
0.91
0.91
0.88
0.89
0.88
0.88
0.88
0.91
0.88
0.87
0.88
0.97
0.87
0.9
0.89
0.88
0.87
0.85
0.83
0.83
0.82
0.83
0.87
0.93
0.92
0.91
0.89
0.89
0.86
0.85
0.85
0.81
0.81
0.81
0.8
0.81
0.85
0.89
0.92
0.9
0.9
0.87
0.84
0.84
0.83
0.81
0.81
0.81
0.8
0.8
0.82
0.89
0.96
0.94
0.92
0.91
0.89
0.86
0.86
0.84
0.85
0.86
0.86
0.86
0.86
0.85
0.83
0.84
0.83
0.89
0.89
0.91
0.85
0.85
0.86
0.82
0.82
0.8
0.82
0.85
0.91
0.85
0.88
0.85
0.85
0.86
0.83
0.83
0.81
0.83
0.87
0.91
0.87
0.9
0.87
0.9
0.88
0.88
0.89
0.89
0.86
0.86
0.86
0.87
0.85
0.84
0.84
0.83
0.85
0.9
0.88
0.89
0.88
0.87
0.88
0.88
0.87
0.84
0.85
0.83
0.83
0.86
0.87
0.86
0.85
0.83
0.83
0.82
0.8
0.81
0.81
0.83
0.82
0.84
0.84
0.86
0.86
0.86
0.85
0.84
0.84
0.84
0.85
0.85
0.84
0.84
0.85
0.84
0.85
0.86
0.96
0.87
0.87
0.86
0.86
0.86
0.84
0.85
0.85
0.86
0.87
0.87
0.86
0.85
0.87
0.86
0.87
0.88
0.88
0.88
0.86
0.85
0.84
0.83
0.82
0.82
0.81
0.87
0.97
0.86
0.87
0.88
0.85
0.85
0.84
0.84
0.87
0.86
0.87
0.88
0.89
0.86
0.87
0.87
0.86
0.88
0.86
0.85
0.86
0.85
0.84
0.85
0.83
0.83
0.86
0.88
0.88
0.88
0.89
0.88
0.87
0.84
0.83
0.83
0.83
0.83
0.9
0.87
0.9
0.89
0.88
0.9
0.87
0.86
0.86
0.85
0.83
0.85
0.85
0.85
0.82
0.83
0.86
0.86
0.89
0.9
0.86
0.89
0.9
0.85
0.86
0.85
0.86
0.85
0.88
0.88
0.88
0.86
0.88
0.86
0.84
0.82
0.81
0.83
1.07
0.96
0.94
0.94
0.91
0.89
0.88
0.86
0.85
0.84
0.83
0.84
0.86
0.86
0.87
0.86
0.88
0.87
0.88
0.87
0.88
0.87
0.89
0.86
0.87
0.84
0.85
0.85
0.84
0.85
0.86
0.86
0.87
0.85
0.86
0.84
0.83
0.82
0.8
0.81
0.91
0.91
0.9
0.87
0.86
0.87
0.87
0.88
0.88
0.89
0.89
0.9
0.88
0.89
0.88
0.88
0.86
0.89
0.89
0.91
0.87
0.87
0.88
0.89
1
0.89
0.96
0.87
0.89
0.9
0.89
0.89
0.88
0.88
0.87
0.88
0.88
0.89
0.9
0.87
0.88
0.85
0.83
0.84
0.86
0.86
0.91
0.87
0.86
0.86
0.86
0.87
0.95
0.91
0.88
0.88
0.88
0.85
0.89
0.9
0.91
0.87
0.88
0.87
0.86
0.86
0.87
0.89
0.87
0.87
0.87
0.86
0.86
0.85
0.85
0.84
0.85
0.86
0.85
0.85
0.84
0.84
0.85
0.88
0.84
0.82
0.81
0.84
0.87
0.9
0.87
0.85
0.85
0.88
0.87
0.9
0.9
0.91
0.86
0.89
0.88
0.88
0.9
0.88
0.88
0.86
0.82
0.82
0.83
0.87
0.95
0.92
0.9
0.85
0.91
0.87
0.89
0.91
0.88
0.89
0.87
0.87
0.87
0.86
0.85
0.86
0.85
0.84
0.82
0.86
0.87
0.91
0.88
0.92
0.84
0.85
0.88
0.9
0.89
0.89
0.85
0.85
0.84
0.84
0.85
0.83
0.82
0.83
0.81
0.84
0.92
0.94
0.87
0.91
0.87
0.87
0.85
0.84
0.82
0.82
0.83
0.84
0.88
0.88
0.87
0.88
0.88
0.89
0.88
0.88
0.86
0.87
0.87
0.86
0.88
0.89
0.9
0.89
0.88
0.84
0.84
0.85
0.88
0.94
0.93
0.93
0.9
0.9
0.89
0.89
0.88
0.9
0.89
0.9
0.89
0.85
0.85
0.87
0.95
0.91
0.94
0.87
0.86
0.85
0.87
0.89
0.9
0.91
0.89
0.89
0.88
0.9
0.88
0.9
0.91
0.92
0.91
0.91
0.91
0.86
0.86
0.88
0.93
0.94
0.9
0.89
0.87
0.88
0.87
0.89
0.9
0.92
0.87
0.86
0.86
0.89
0.88
0.89
0.87
0.86
0.85
0.84
0.85
0.87
0.89
0.89
0.89
0.88
0.88
0.88
0.88
0.87
0.86
0.86
0.88
0.87
0.86
0.84
0.84
0.83
0.85
0.87
0.85
0.84
0.87
0.88
0.87
0.86
0.86
0.82
0.79
0.75
0.76
0.76
0.76
0.75
0.73
0.73
0.78
0.82
0.82
0.82
0.83
0.86
0.89
0.87
0.9
0.87
0.85
0.84
0.84
0.86
0.88
0.91
0.91
0.9
0.88
0.89
0.88
0.9
0.9
0.87
0.89
0.86
0.83
0.84
0.83
0.87
0.96
0.88
0.9
0.9
0.86
0.87
0.87
0.87
0.88
0.87
0.86
0.84
0.85
0.87
0.87
0.91
0.89
0.89
0.88
0.89
0.87
0.88
0.88
0.88
0.85
0.85
0.84
0.86
0.89
0.95
0.89
0.91
0.86
0.86
0.88
0.88
0.89
0.9
0.87
0.87
0.87
0.9
0.9
0.9
0.91
0.88
0.86
0.87
0.87
0.89
0.88
0.84
0.83
0.84
0.88
0.89
0.88
0.85
0.86
0.87
0.88
0.91
0.88
0.85
0.82
0.83
0.84
0.85
0.86
0.85
0.84
0.84
0.83
0.87
0.88
0.88
0.88
0.87
0.85
0.83
0.84
0.82
0.83
0.84
0.85
0.87
0.87
0.87
0.88
0.87
0.89
0.87
0.88
0.88
0.86
0.86
0.83
0.84
0.86
0.88
0.93
0.88
0.88
0.85
0.83
0.84
0.86
0.87
0.89
0.9
0.9
0.88
0.88
0.89
0.9
0.89
0.88
0.86
0.84
0.86
0.88
0.9
0.91
0.91
0.9
0.9
0.9
0.9
0.88
0.88
0.85
0.87
0.86
0.88
0.9
0.88
0.88
0.86
0.84
0.82
0.84
0.87
0.91
0.86
0.86
0.85
0.88
0.89
0.9
0.88
0.86
0.86
0.85
0.85
0.86
0.87
0.85
0.85
0.85
0.85
0.86
0.84
0.83
0.81
0.79
0.78
0.78
0.78
0.79
0.78
0.78
0.78
0.84
0.92
0.87
0.89
0.89
0.88
0.88
0.86
0.87
0.87
0.85
0.86
0.86
0.86
0.9
0.91
0.89
0.87
0.86
0.84
0.87
0.87
0.86
0.88
0.9
0.87
0.86
0.86
0.89
0.91
0.89
0.89
0.88
0.86
0.87
0.86
0.91
0.93
0.89
0.93
0.91
0.92
0.91
0.91
0.89
0.87
0.84
0.85
0.86
0.88
0.89
0.89
0.89
0.88
0.86
0.84
0.84
0.84
0.85
0.84
0.82
0.79
0.76
1.49
0.74
0.73
0.72
0.71
0.68
0.68
0.67
0.66
0.67
0.66
0.69
0.7
0.72
0.73
0.73
0.72
0.73
0.72
0.71
0.75
0.85
0.89
0.9
0.9
0.86
0.87
0.86
0.85
0.85
0.92
1.01
0.93
0.93
0.93
0.89
0.88
0.85
0.86
0.89
0.93
0.92
0.94
0.93
0.92
0.89
0.87
0.86
0.87
0.89
0.91
0.96
0.91
0.93
0.92
0.91
0.91
0.87
0.85
0.83
0.82
0.82
0.87
0.92
0.89
0.88
0.87
0.86
0.85
0.85
0.82
0.85
0.82
0.82
0.84
0.86
0.88
0.86
0.85
0.84
0.83
0.82
0.81
0.81
0.8
0.81
0.79
0.79
0.79
0.83
0.87
0.88
0.86
0.86
0.84
0.84
0.82
0.81
0.81
0.81
0.84
0.84
0.86
0.86
0.86
0.84
0.86
0.84
0.83
0.83
0.82
0.83
0.83
0.83
0.83
0.83
0.81
0.8
0.8
0.79
0.81
0.94
0.89
0.86
0.87
0.86
0.84
0.83
0.82
0.82
0.8
0.79
0.8
0.79
0.78
0.83
0.86
0.85
0.83
0.82
0.81
0.81
0.8
0.78
0.78
0.78
0.77
0.78
0.8
0.89
0.9
0.85
0.85
0.85
0.84
0.83
0.82
0.8
0.78
0.79
0.81
0.86
0.85
0.86
0.86
0.86
0.85
0.83
0.82
0.81
0.8
0.8
0.81
0.84
0.85
0.84
0.85
0.82
0.81
0.8
0.78
0.78
0.76
0.76
0.76
0.78
0.79
0.8
0.79
0.81
0.82
0.85
0.85
0.84
0.83
0.84
0.81
0.8
0.79
0.79
0.8
0.82
0.84
0.85
0.84
0.84
0.82
0.81
0.8
0.8
0.78
0.78
0.79
0.81
0.87
0.93
0.86
0.86
0.85
0.84
0.82
0.79
0.8
0.78
0.78
0.78
0.79
0.82
0.84
0.84
0.83
0.83
0.82
0.81
0.81
0.8
0.79
0.77
0.77
0.78
0.78
0.78
0.79
0.79
0.78
0.81
0.87
0.86
0.87
0.84
0.86
0.83
0.83
0.82
0.81
0.8
0.81
0.8
0.82
0.83
0.85
0.85
0.84
0.82
0.82
0.82
0.8
0.81
0.83
0.82
0.83
0.82
0.82
0.8
0.81
0.82
0.82
0.83
0.83
0.83
0.82
0.81
0.81
0.84
0.84
0.88
0.87
0.85
0.86
0.84
0.83
0.82
0.82
0.83
0.83
0.84
0.83
0.82
0.81
0.8
0.81
0.81
0.83
0.83
0.84
0.85
0.86
0.83
0.81
0.8
0.79
0.8
0.83
0.87
0.86
0.84
0.83
0.83
0.82
0.8
0.81
0.79
0.79
0.79
0.81
0.82
0.83
0.83
0.83
0.81
0.8
0.79
0.78
0.78
0.79
0.81
0.83
0.85
0.84
0.83
0.82
0.81
0.8
0.8
0.78
0.79
0.78
0.78
0.78
0.78
0.8
0.84
0.87
0.84
0.84
0.82
0.82
0.79
0.79
0.78
0.78
0.8
0.82
0.82
0.83
0.82
0.82
0.8
0.81
0.81
0.81
0.82
0.81
0.8
0.8
0.8
0.8
0.8
0.81
0.82
0.82
0.83
0.81
0.81
0.79
0.8
0.78
0.8
0.8
0.78
0.79
0.79
0.78
0.79
0.8
0.8
0.78
0.79
0.78
0.78
0.79
0.79
0.79
0.78
0.79
0.78
0.8
0.81
0.81
0.82
0.81
0.81
0.8
0.81
0.81
0.83
0.83
0.82
0.8
0.79
0.77
0.79
0.81
0.81
0.81
0.83
0.83
0.81
0.82
0.8
0.77
0.76
0.73
0.71
0.71
0.73
0.75
0.75
0.77
0.79
0.82
0.81
0.82
0.82
0.8
0.79
0.78
0.78
0.79
0.82
0.82
0.83
0.82
0.8
0.8
0.78
0.78
0.77
0.79
0.82
0.83
0.83
0.83
0.83
0.83
0.8
0.79
0.78
0.79
0.82
0.82
0.82
0.81
0.81
0.81
0.81
0.82
0.83
0.8
0.75
0.75
0.74
0.75
0.74
0.76
0.77
0.81
0.82
0.82
0.84
0.82
0.8
0.79
0.81
0.82
0.82
0.83
0.82
0.81
0.81
0.79
0.78
0.77
0.78
0.79
0.8
0.8
0.8
0.79
0.77
0.77
0.78
0.79
0.81
0.81
0.81
0.8
0.8
0.79
0.78
0.77
0.77
0.79
0.83
0.85
0.83
0.84
0.84
0.82
0.81
0.8
0.82
0.83
0.83
0.85
0.84
0.84
0.83
0.81
0.82
0.81
0.8
0.8
0.8
0.82
0.83
0.85
0.84
0.84
0.83
0.81
0.81
0.81
0.82
0.82
0.84
0.84
0.82
0.8
0.81
0.83
0.85
0.89
0.89
0.87
0.85
0.82
0.81
0.81
0.8
0.82
0.83
0.84
0.84
0.83
0.83
0.82
0.81
0.82
0.83
0.84
0.84
0.83
0.83
0.82
0.8
0.8
0.81
0.81
0.83
0.84
0.84
0.85
0.84
0.83
0.82
0.8
0.79
0.8
0.81
0.82
0.86
0.84
0.85
0.85
0.83
0.83
0.83
0.83
0.82
0.81
0.81
0.82
0.82
0.85
0.83
0.83
0.84
0.82
0.83
0.81
0.79
0.79
0.78
0.79
0.84
0.87
0.86
0.86
0.83
0.85
0.85
0.84
0.83
0.82
0.82
0.82
0.81
0.82
0.83
0.82
0.82
0.83
0.82
0.82
0.81
0.8
0.81
0.83
0.86
0.88
0.87
0.88
0.84
0.84
0.85
0.84
0.83
0.84
0.83
0.83
0.82
0.81
0.8
0.8
0.81
0.82
0.84
0.84
0.83
0.83
0.83
0.82
0.84
0.83
0.82
0.82
0.83
0.83
0.83
0.84
0.83
0.82
0.82
0.82
0.81
0.8
0.81
0.86
0.89
0.87
0.87
0.85
0.85
0.87
0.85
0.84
0.83
0.84
0.81
0.81
0.8
0.79
0.8
0.77
0.76
0.76
0.77
0.78
0.79
0.79
0.78
0.78
0.77
0.75
0.74
0.72
0.73
0.74
0.75
0.76
0.77
0.76
0.75
0.76
0.77
0.77
0.75
0.72
0.69
0.68
0.68
0.67
0.76
0.76
0.76
0.77
0.75
0.75
0.73
0.72
0.72
0.74
0.85
0.93
0.9
0.9
0.86
0.84
0.83
0.83
0.8
0.78
0.78
0.75
0.72
0.72
0.73
0.74
0.74
0.77
0.79
0.82
0.81
0.8
0.8
0.78
0.78
0.78
0.81
0.86
0.85
0.85
0.85
0.83
0.83
0.82
0.84
0.88
0.9
0.91
0.88
0.86
0.87
0.84
0.84
0.83
0.81
0.81
0.84
0.87
0.89
0.87
0.85
0.85
0.84
0.83
0.81
0.81
0.81
0.83
0.85
0.86
0.86
0.86
0.86
0.85
0.85
0.83
0.82
0.81
0.81
0.81
0.81
0.84
0.87
0.86
0.87
0.87
0.85
0.81
0.79
0.78
0.79
0.78
0.79
0.8
0.81
0.82
0.81
0.81
0.83
0.84
0.84
0.84
0.83
0.82
0.8
0.8
0.8
0.82
0.83
0.84
0.84
0.85
0.82
0.83
0.83
0.82
0.81
0.82
0.81
0.8
0.78
0.8
0.82
0.86
0.88
0.85
0.85
0.83
0.81
0.81
0.79
0.8
0.8
0.84
0.85
0.86
0.85
0.84
0.84
0.84
0.81
0.82
0.81
0.82
0.83
0.88
0.9
0.89
0.88
0.87
0.86
0.84
0.83
0.81
0.81
0.82
0.84
0.86
0.88
0.87
0.87
0.84
0.84
0.82
0.81
0.81
0.82
0.87
0.89
0.88
0.88
0.88
0.87
0.86
0.85
0.85
0.83
0.83
0.83
0.83
0.86
0.91
0.94
0.91
0.91
0.89
0.88
0.86
0.86
0.83
0.83
0.82
0.84
0.87
0.91
0.91
0.9
0.87
0.86
0.85
0.83
0.83
0.82
0.83
0.82
0.84
0.82
0.82
0.82
0.83
0.84
0.86
0.85
0.85
0.84
0.83
0.82
0.82
0.81
0.81
0.82
0.83
0.86
0.86
0.87
0.87
0.86
0.84
0.82
0.8
0.8
0.79
0.79
0.82
0.84
0.85
0.85
0.85
0.84
0.83
0.83
0.83
0.81
0.8
0.79
0.77
0.77
0.8
0.84
0.86
0.85
0.85
0.84
0.83
0.82
0.81
0.82
0.82
0.83
0.85
0.86
0.86
0.84
0.84
0.82
0.81
0.8
0.82
0.82
0.82
0.83
0.82
0.82
0.8
0.82
0.82
0.84
0.84
0.84
0.82
0.81
0.81
0.81
0.82
0.84
0.85
0.84
0.84
0.82
0.82
0.81
0.82
0.82
0.84
0.83
0.82
0.82
0.81
0.8
0.79
0.81
0.81
0.82
0.82
0.83
0.83
0.82
0.81
0.79
0.8
0.79
0.81
0.83
0.82
0.82
0.8
0.81
0.8
0.81
0.81
0.82
0.81
0.8
0.8
0.77
0.77
0.74
0.72
0.69
0.68
0.7
0.73
0.73
0.74
0.74
0.74
0.75
0.75
0.76
0.75
0.75
0.75
0.73
0.73
0.72
0.71
0.71
0.72
0.76
0.78
0.79
0.81
0.8
0.81
0.79
0.79
0.78
0.78
0.8
0.83
0.86
0.86
0.87
0.85
0.83
0.81
0.79
0.8
0.79
0.8
0.81
0.82
0.81
0.8
0.81
0.83
0.86
0.89
0.88
0.88
0.88
0.87
0.86
0.84
0.84
0.83
0.84
0.86
0.88
0.88
0.87
0.86
0.85
0.83
0.82
0.83
0.86
0.89
0.89
0.88
0.86
0.86
0.86
0.85
0.86
0.87
0.88
0.87
0.85
0.86
0.84
0.86
0.85
0.86
0.86
0.84
0.83
0.82
0.82
0.83
0.84
0.87
0.87
0.87
0.87
0.86
0.84
0.84
0.82
0.81
0.81
0.83
0.86
0.87
0.87
0.86
0.85
0.84
0.82
0.81
0.82
0.84
0.85
0.87
0.86
0.86
0.85
0.84
0.85
0.82
0.82
0.81
0.83
0.84
0.87
0.88
0.87
0.85
0.84
0.83
0.85
0.83
0.82
0.81
0.81
0.81
0.82
0.82
0.84
0.82
0.82
0.8
0.8
0.79
0.81
0.8
0.81
0.79
0.8
0.81
0.81
0.82
0.82
0.81
0.8
0.79
0.8
0.8
0.81
0.82
0.83
0.81
0.8
0.81
0.8
0.82
0.82
0.79
0.8
0.78
0.79
0.79
0.81
0.81
0.82
0.8
0.8
0.8
0.8
0.81
0.82
0.82
0.81
0.8
0.81
0.82
0.83
0.82
0.82
0.81
0.81
0.81
0.82
0.81
0.82
0.81
0.8
0.8
0.79
0.81
0.82
0.83
0.84
0.82
0.82
0.81
0.8
0.81
0.8
0.81
0.8
0.8
0.82
0.83
0.83
0.84
0.83
0.8
0.81
0.82
0.82
0.84
0.83
0.82
0.82
0.84
0.85
0.86
0.84
0.83
0.82
0.83
0.85
0.84
0.83
0.82
0.81
0.8
0.8
0.82
0.84
0.83
0.84
0.84
0.83
0.83
0.81
0.82
0.81
0.82
0.82
0.81
0.81
0.82
0.82
0.81
0.8
0.81
0.82
0.83
0.82
0.81
0.81
0.82
0.81
0.82
0.82
0.81
0.8
0.81
0.81
0.83
0.83
0.83
0.81
0.81
0.81
0.82
0.81
0.79
0.79
0.8
0.81
0.84
0.82
0.82
0.81
0.82
0.82
0.82
0.81
0.81
0.8
0.8
0.81
0.81
0.83
0.82
0.81
0.8
0.81
0.82
0.83
0.82
0.81
0.81
0.81
0.81
0.82
0.83
0.81
0.8
0.8
0.8
0.82
0.82
0.82
0.81
0.81
0.81
0.82
0.83
0.84
0.84
0.82
0.81
0.81
0.82
0.83
0.85
0.85
0.84
0.83
0.83
0.83
0.83
0.86
0.86
0.87
0.86
0.87
0.85
0.86
0.83
0.83
0.83
0.82
0.82
0.81
0.8
0.76
0.75
0.75
0.76
0.75
0.75
0.77
0.82
0.83
0.83
0.83
0.82
0.81
0.82
0.81
0.82
0.82
0.84
0.84
0.83
0.83
0.85
0.86
0.85
0.86
0.84
0.85
0.86
0.84
0.86
0.86
0.84
0.83
0.83
0.83
0.82
0.8
0.8
0.79
0.81
0.83
0.83
0.84
0.83
0.82
0.81
0.8
0.82
0.82
0.82
0.81
0.81
0.82
0.81
0.83
0.81
0.78
0.76
0.75
0.75
0.78
0.79
0.79
0.79
0.81
0.84
0.86
0.84
0.84
0.84
0.81
0.81
0.79
0.82
0.81
0.84
0.84
0.82
0.84
0.85
0.85
0.86
0.86
0.84
0.85
0.83
0.84
0.85
0.85
0.84
0.85
0.87
0.85
0.83
0.82
0.82
0.85
0.84
0.84
0.82
0.8
0.8
0.79
0.85
0.97
0.87
0.89
0.91
0.89
0.89
0.86
0.86
0.85
0.85
0.84
0.87
0.85
0.83
0.81
0.82
0.82
0.87
0.88
0.93
0.88
0.87
0.84
0.85
0.83
0.86
0.87
0.86
0.87
0.83
0.83
0.82
0.82
0.84
0.83
0.84
0.82
0.81
0.81
0.8
0.83
0.84
0.84
0.84
0.82
0.82
0.8
0.79
0.78
0.78
0.8
0.82
0.83
0.85
0.83
0.84
0.82
0.82
0.83
0.84
0.83
0.83
0.82
0.81
0.8
0.8
0.79
0.79
0.81
0.84
0.85
0.86
0.85
0.83
0.83
0.81
0.81
0.8
0.8
0.83
0.85
0.85
0.85
0.85
0.84
0.84
0.86
0.85
0.85
0.83
0.84
0.84
0.84
0.83
0.82
0.81
0.82
0.81
0.81
0.83
0.84
0.82
0.81
0.8
0.82
0.83
0.83
0.84
0.83
0.82
0.81
0.81
0.81
0.82
0.83
0.82
0.81
0.8
0.79
0.78
0.79
0.8
0.8
0.8
0.8
0.81
0.82
0.86
0.86
0.87
0.86
0.85
0.83
0.83
0.82
0.8
0.82
0.83
0.82
0.82
0.81
0.82
0.81
0.8
0.79
0.79
0.77
0.78
0.76
0.76
0.76
0.81
0.83
0.83
0.82
0.82
0.83
0.81
0.81
0.81
0.81
0.79
0.79
0.79
0.79
0.8
0.81
0.81
0.81
0.81
0.8
0.8
0.79
0.8
0.79
0.8
0.78
0.79
0.79
0.8
0.81
0.81
0.81
0.79
0.79
0.79
0.8
0.81
0.8
0.8
0.8
0.78
0.79
0.8
0.81
0.82
0.8
0.79
0.8
0.79
0.8
0.81
0.8
0.79
0.79
0.79
0.79
0.8
0.8
0.8
0.8
0.8
0.81
0.8
0.8
0.8
0.79
0.79
0.8
0.81
0.79
0.78
0.78
0.78
0.79
0.8
0.81
0.81
0.8
0.8
0.8
0.82
0.82
0.82
0.81
0.82
0.83
0.82
0.82
0.8
0.81
0.84
0.86
0.87
0.87
0.86
0.85
0.84
0.85
0.85
0.83
0.85
0.85
0.85
0.82
0.83
0.82
0.83
0.84
0.84
0.84
0.83
0.82
0.83
0.85
0.85
0.85
0.84
0.83
0.85
0.84
0.84
0.82
0.83
0.84
0.85
0.85
0.84
0.83
0.82
0.82
0.85
0.85
0.86
0.84
0.85
0.84
0.84
0.85
0.84
0.83
0.83
0.84
0.84
0.82
0.84
0.83
0.81
0.81
0.81
0.82
0.82
0.83
0.81
0.8
0.79
0.82
0.82
0.84
0.83
0.82
0.84
0.84
0.85
0.83
0.82
0.83
0.82
0.83
0.84
0.84
0.84
0.82
0.81
0.81
0.81
0.82
0.81
0.81
0.81
0.83
0.83
0.86
0.83
0.82
0.81
0.82
0.83
0.81
0.82
0.8
0.8
0.82
0.83
0.84
0.82
0.81
0.81
0.84
0.85
0.86
0.85
0.83
0.84
0.84
0.84
0.85
0.83
0.82
0.81
0.83
0.85
0.87
0.86
0.84
0.84
0.84
0.84
0.83
0.84
0.84
0.82
0.82
0.84
0.83
0.85
0.86
0.83
0.82
0.81
0.81
0.85
0.84
0.84
0.82
0.81
0.82
0.81
0.81
0.82
0.81
0.82
0.84
0.83
0.83
0.82
0.82
0.8
0.79
0.76
0.74
0.73
0.75
0.76
0.75
0.78
0.84
0.87
0.85
0.84
0.84
0.84
0.85
0.88
0.87
0.86
0.87
0.87
0.88
0.88
0.86
0.85
0.86
0.85
0.87
0.86
0.86
0.86
0.86
0.87
0.87
0.84
0.82
0.81
0.81
0.83
0.87
0.85
0.82
0.84
0.82
0.82
0.84
0.82
0.82
0.82
0.81
0.84
0.85
0.83
0.84
0.83
0.84
0.86
0.85
0.83
0.84
0.83
0.83
0.82
0.81
0.82
0.83
0.84
0.88
0.84
0.84
0.86
0.86
0.85
0.84
0.82
0.81
0.83
0.85
0.84
0.84
0.84
0.82
0.83
0.85
0.85
0.84
0.83
0.83
0.85
0.84
0.82
0.81
0.8
0.81
0.84
0.85
0.85
0.85
0.86
0.86
0.84
0.85
0.85
0.82
0.81
0.8
0.84
0.87
0.84
0.84
0.86
0.88
0.89
0.87
0.87
0.85
0.84
0.83
0.81
0.81
0.81
1.58
0.77
0.73
0.72
0.69
0.68
0.66
0.65
0.66
0.66
0.66
0.67
0.66
0.65
0.66
0.68
0.68
0.69
0.69
0.69
0.68
0.68
0.67
0.67
0.71
0.84
0.88
0.87
0.87
0.83
0.84
0.82
0.79
0.79
0.79
0.82
0.81
0.84
0.84
0.84
0.82
0.81
0.82
0.83
0.84
0.87
0.87
0.86
0.85
0.84
0.82
0.86
0.87
0.87
0.88
0.87
0.86
0.86
0.85
0.84
0.85
0.82
0.81
0.82
0.86
0.89
0.9
0.88
0.88
0.86
0.87
0.86
0.85
0.83
0.82
0.81
0.81
0.83
0.88
0.9
0.89
0.89
0.87
0.87
0.84
0.83
0.81
0.83
0.85
0.87
0.89
0.9
0.88
0.86
0.84
0.82
0.82
0.83
0.85
0.85
0.84
0.83
0.84
0.86
0.88
0.88
0.89
0.9
0.86
0.84
0.84
0.84
0.87
0.87
0.86
0.88
0.89
0.89
0.87
0.84
0.83
0.84
0.85
0.86
0.87
0.87
0.86
0.85
0.84
0.81
0.81
0.81
0.85
0.87
0.89
0.9
0.89
0.87
0.86
0.86
0.84
0.82
0.81
0.83
0.84
0.86
0.86
0.84
0.83
0.81
0.82
0.82
0.8
0.78
0.75
0.72
0.73
0.76
0.74
0.77
0.76
0.75
0.74
0.58
1.55
0.68
0.69
0.5
0.84
0.66
0.65
0.64
0.63
0.63
0.63
0.65
0.66
0.67
0.71
0.8
0.81
0.8
0.79
0.81
0.81
0.82
0.82
0.89
1
0.96
0.95
0.93
0.92
0.92
0.92
0.96
0.92
0.9
0.89
0.89
0.9
0.97
0.95
0.94
0.91
0.91
0.89
0.87
0.86
0.9
0.98
0.97
0.92
0.94
0.89
0.87
0.84
0.83
0.76
0.84
0.79
0.78
0.75
0.72
0.71
0.68
0.68
0.65
0.66
0.65
0.65
0.64
0.65
0.64
0.64
0.65
0.65
0.67
0.67
0.69
0.68
0.69
0.67
0.66
0.67
0.69
0.7
0.72
0.77
0.85
0.87
0.84
0.84
0.84
0.82
0.81
0.8
0.83
0.89
0.9
0.89
0.88
0.87
0.85
0.84
0.83
0.85
0.88
0.89
0.87
0.86
0.85
0.85
0.85
0.85
0.86
0.86
0.84
0.86
0.83
0.84
0.82
0.85
0.83
0.83
0.82
0.83
0.82
0.83
0.82
0.81
0.8
0.8
0.81
0.84
0.83
0.82
0.8
0.76
0.74
0.77
0.84
0.87
0.85
0.82
0.81
0.81
0.77
0.74
0.73
0.75
0.78
0.81
0.87
0.92
0.94
0.9
0.9
0.89
0.88
0.85
0.84
0.84
0.85
0.88
0.91
0.89
0.89
0.87
0.87
0.85
0.85
0.84
0.84
0.89
0.93
0.89
0.88
0.88
0.86
0.86
0.85
0.85
0.86
0.88
0.94
0.94
0.88
0.89
0.86
0.86
0.85
0.84
0.84
0.83
0.83
0.83
0.83
0.82
0.79
0.76
0.73
0.71
0.71
0.72
0.73
0.78
0.79
0.8
0.81
0.8
0.79
0.8
0.82
0.83
0.84
0.85
0.85
0.86
0.85
0.84
0.84
0.83
0.81
0.79
0.76
0.72
0.71
0.7
0.72
0.76
0.8
0.82
0.81
0.81
0.8
0.76
0.76
0.77
0.8
0.82
0.84
0.86
0.94
0.94
0.88
0.89
0.89
0.88
0.88
0.86
0.86
0.84
0.83
0.85
0.88
0.91
0.99
0.87
0.89
0.86
0.88
0.84
0.83
0.83
0.83
0.86
0.88
0.9
0.88
0.87
0.84
0.83
0.82
0.82
0.82
0.84
0.85
0.85
0.87
0.85
0.86
0.86
0.85
0.85
0.84
0.84
0.83
0.83
0.84
0.87
0.86
0.88
0.87
0.86
0.85
0.84
0.84
0.82
0.82
0.81
0.82
0.86
0.89
0.9
0.86
0.87
0.84
0.83
0.82
0.85
0.85
0.87
0.88
0.88
0.87
0.88
0.89
0.86
0.85
0.86
0.85
0.84
0.83
0.83
0.82
0.83
0.84
0.9
0.9
0.9
0.87
0.88
0.88
0.88
0.86
0.83
0.85
0.84
0.86
0.87
0.87
0.87
0.85
0.83
0.82
0.8
0.78
0.76
0.76
0.79
0.81
0.83
0.85
0.84
0.84
0.87
0.89
0.91
0.88
0.87
0.87
0.85
0.84
0.83
0.86
0.88
0.88
0.88
0.87
0.88
0.87
0.85
0.85
0.84
0.84
0.84
0.86
0.87
0.9
0.9
0.9
0.89
0.88
0.89
0.89
0.86
0.86
0.85
0.84
0.83
0.82
0.83
0.86
0.9
0.87
0.87
0.88
0.86
0.86
0.87
0.85
0.85
0.85
0.84
0.83
0.81
0.84
0.85
0.85
0.86
0.85
0.84
0.83
0.85
0.87
0.86
0.86
0.86
0.85
0.84
0.82
0.83
0.84
0.85
0.85
0.86
0.87
0.84
0.86
0.85
0.87
0.89
0.87
0.9
0.88
0.88
0.86
0.86
0.87
0.94
0.93
0.93
0.91
0.91
0.87
0.84
0.84
0.84
0.84
0.87
0.84
0.82
0.8
0.77
0.75
0.76
0.76
0.79
0.82
0.83
0.85
0.83
0.84
0.83
0.82
0.85
0.87
0.88
0.89
0.88
0.89
0.87
0.87
0.85
0.85
0.86
0.89
0.91
0.92
0.91
0.9
0.89
0.88
0.88
0.84
0.85
0.86
0.88
0.9
0.92
0.91
0.9
0.87
0.88
0.88
0.89
0.9
0.88
0.89
0.89
0.87
0.87
0.86
0.86
0.89
0.92
0.91
0.91
0.92
0.88
0.9
0.88
0.85
0.85
0.86
0.87
0.89
0.9
0.89
0.9
0.92
0.91
0.9
0.88
0.84
0.84
0.83
0.85
0.87
0.88
0.88
0.87
0.86
0.89
0.88
0.89
0.9
0.88
0.87
0.85
0.85
0.85
0.86
0.85
0.86
0.86
0.89
0.89
0.9
0.88
0.9
0.9
0.88
0.88
0.86
0.86
0.88
0.92
0.9
0.87
0.86
0.87
0.88
0.86
0.89
0.85
0.86
0.88
0.9
0.91
0.89
0.87
0.88
0.87
0.89
0.89
0.87
0.87
0.87
0.88
0.9
0.92
0.89
0.87
0.89
0.87
0.87
0.86
0.84
0.86
0.86
0.88
0.89
0.89
0.9
0.91
0.87
0.9
0.89
0.89
0.87
0.85
0.88
0.86
0.89
0.88
0.86
0.85
0.87
0.86
0.87
0.84
0.85
0.84
0.85
0.83
0.83
0.84
0.84
0.84
0.85
0.84
0.84
0.85
0.86
0.84
0.82
0.83
0.84
0.84
0.86
0.85
0.85
0.87
0.87
0.87
0.87
0.85
0.84
0.84
0.84
0.84
0.83
0.83
0.82
0.85
0.88
0.89
0.91
0.89
0.9
0.91
0.91
0.9
0.89
0.91
0.87
0.89
0.88
0.88
0.89
0.89
0.84
0.83
0.86
0.88
0.91
0.88
0.88
0.84
0.87
0.88
0.88
0.89
0.9
0.89
0.89
0.91
0.9
0.89
0.89
0.89
0.9
0.89
0.88
0.86
0.85
0.85
0.84
0.84
0.82
0.82
0.86
0.9
0.93
0.88
0.9
0.95
0.9
0.89
0.88
0.88
0.89
0.86
0.86
0.83
0.84
0.85
0.85
0.86
0.85
0.87
0.89
0.88
0.86
0.87
0.87
0.87
0.85
0.86
0.84
0.87
0.87
0.89
0.9
0.89
0.89
0.91
0.9
0.88
0.87
0.86
0.85
0.84
0.83
0.81
0.8
0.8
0.79
0.78
0.76
0.74
0.75
0.75
0.78
0.8
0.84
0.86
0.86
0.88
0.9
0.9
0.9
0.91
0.93
0.88
0.88
0.89
0.88
0.88
0.86
0.88
0.89
0.9
0.87
0.88
0.89
0.91
0.88
0.85
0.86
0.85
0.89
0.89
0.88
0.9
0.91
0.9
0.9
0.89
0.89
0.9
0.92
0.94
0.89
0.87
0.88
0.9
0.94
0.95
0.91
0.9
0.9
0.89
0.9
0.86
0.86
0.85
0.87
0.86
0.86
0.84
0.84
0.84
0.86
0.84
0.84
0.84
0.83
0.86
0.89
0.9
0.87
0.88
0.9
0.92
0.91
0.91
0.89
0.87
0.89
0.88
0.89
0.88
0.87
0.85
0.84
0.84
0.87
0.9
0.89
0.94
1.03
0.93
0.91
0.91
0.92
0.92
0.9
0.87
0.87
0.87
0.87
0.86
0.87
0.89
0.93
0.9
0.91
0.89
0.86
0.85
0.87
0.89
0.89
0.88
0.87
0.84
0.84
0.85
0.81
0.8
0.8
0.81
0.82
0.83
0.85
0.86
0.88
0.92
0.95
0.92
0.93
0.91
0.92
0.88
0.89
0.91
0.92
0.93
0.9
0.9
0.9
0.91
0.91
0.87
0.87
0.89
0.92
0.89
0.88
0.93
0.95
0.94
0.92
0.89
0.9
0.9
0.89
0.9
0.88
0.89
0.88
0.88
0.89
0.9
0.91
0.88
0.86
0.87
0.89
0.93
0.93
0.89
0.9
0.91
0.92
0.9
0.88
0.89
0.89
0.91
0.88
0.86
0.85
0.85
0.86
0.88
0.88
0.85
0.87
0.88
0.9
0.89
0.87
0.86
0.88
0.87
0.86
0.84
0.84
0.85
0.84
0.87
0.87
0.86
0.88
0.88
0.89
0.86
0.84
0.84
0.84
0.86
0.87
0.84
0.84
0.84
0.86
0.88
0.9
0.89
0.91
0.94
0.93
0.9
0.89
0.91
0.9
0.9
0.87
0.87
0.88
0.88
0.85
0.83
0.85
0.87
0.88
0.87
0.89
0.9
0.91
0.91
0.88
0.88
0.87
0.92
0.9
0.88
0.87
0.88
0.91
1
0.89
0.92
0.97
0.95
0.94
0.92
0.92
0.93
0.91
0.93
0.9
0.92
0.91
0.89
0.91
0.9
0.91
0.94
0.91
0.9
0.93
0.91
0.89
0.88
0.85
0.86
0.88
0.9
0.88
0.86
0.87
0.88
0.86
0.86
0.87
0.87
0.89
0.89
0.86
0.85
0.85
0.84
0.85
0.85
0.84
0.84
0.88
0.86
0.87
0.85
0.84
0.85
0.86
0.86
0.86
0.86
0.88
0.9
0.88
0.89
0.9
0.89
0.89
0.86
0.86
0.85
0.87
0.86
0.84
0.87
0.88
0.88
0.88
0.88
0.88
0.88
0.88
0.89
0.87
0.91
0.93
0.95
0.91
0.91
0.91
0.92
0.91
0.89
0.89
0.89
0.9
0.89
0.88
0.84
0.85
0.85
0.88
0.88
0.89
0.86
0.85
0.87
0.91
0.93
0.91
0.88
0.91
0.91
0.91
0.89
0.89
0.91
0.95
0.93
0.91
0.9
0.92
0.92
0.93
0.91
0.88
0.87
0.89
0.88
0.88
0.88
0.86
0.87
0.89
0.91
0.87
0.84
0.85
0.86
0.88
0.86
0.86
0.86
0.89
0.89
0.89
0.86
0.88
0.88
0.87
0.87
0.84
0.88
0.87
0.88
0.89
0.9
0.89
0.88
0.89
0.87
0.86
0.87
0.86
0.85
0.85
0.86
0.89
0.86
0.87
0.88
0.89
0.91
0.89
0.87
0.86
0.87
0.88
0.88
0.9
0.92
0.93
0.95
0.93
0.96
0.96
0.93
0.92
0.93
0.93
0.92
0.9
0.88
0.91
0.9
0.91
0.9
0.87
0.87
0.87
0.87
0.83
0.82
0.81
0.81
0.85
0.85
0.85
0.89
0.91
0.93
0.9
0.88
0.89
0.91
0.9
0.92
0.89
0.91
0.91
0.91
0.92
0.89
0.89
0.89
0.88
0.92
0.9
0.9
0.88
0.89
0.86
0.86
0.87
0.9
0.87
0.83
0.83
0.82
0.82
0.84
0.85
0.91
0.93
0.92
0.89
0.9
0.9
0.9
0.87
0.86
0.87
0.87
0.89
0.87
0.86
0.88
0.87
0.87
0.86
0.86
0.86
0.86
0.87
0.86
0.85
0.87
0.88
0.89
0.86
0.84
0.84
0.86
0.86
0.85
0.84
0.82
0.81
0.82
0.81
0.82
0.83
0.84
0.89
0.89
0.87
0.85
0.86
0.87
0.9
0.9
0.88
0.91
0.94
0.91
0.91
0.87
0.85
0.82
0.83
0.85
0.87
0.88
0.91
0.95
0.96
0.93
0.96
0.92
0.92
0.92
0.9
0.9
0.88
0.89
0.89
0.91
0.91
0.88
0.85
0.86
0.87
0.89
0.85
0.83
0.82
0.82
0.84
0.85
0.85
0.84
0.84
0.86
0.89
0.88
0.88
0.87
0.86
0.86
0.87
0.89
0.9
0.89
0.88
0.89
0.91
0.91
0.9
0.87
0.87
0.87
0.88
0.88
0.89
0.88
0.86
0.86
0.87
0.88
0.85
0.84
0.84
0.85
0.85
0.84
0.84
0.84
0.84
0.85
0.86
0.86
0.85
0.84
0.85
0.84
0.84
0.83
0.82
0.82
0.83
0.85
0.85
0.87
0.9
0.93
0.91
0.89
0.9
0.9
0.9
0.86
0.86
0.87
0.87
0.86
0.85
0.86
0.89
0.87
0.86
0.85
0.88
0.88
0.87
0.88
0.89
0.87
0.87
0.85
0.87
0.88
0.94
0.93
0.89
0.92
0.95
0.94
0.92
0.9
0.87
0.89
0.89
0.89
0.88
0.87
0.84
0.85
0.87
0.86
0.86
0.85
0.85
0.87
0.86
0.86
0.83
0.84
0.84
0.87
0.86
0.85
0.87
0.89
0.88
0.88
0.86
0.85
0.87
0.89
0.89
0.92
0.89
0.89
0.89
0.9
0.93
0.91
0.87
0.87
0.88
0.87
0.87
0.87
0.86
0.85
0.86
0.88
0.88
0.88
0.85
0.85
0.86
0.85
0.86
0.86
0.84
0.85
0.88
0.87
0.86
0.83
0.83
0.81
0.83
0.84
0.83
0.84
0.87
0.87
0.87
0.86
0.88
0.9
0.92
0.9
0.89
0.89
0.91
0.87
0.86
0.88
0.89
0.88
0.85
0.86
0.85
0.86
0.85
0.83
0.86
0.86
0.86
0.86
0.85
0.86
0.88
0.9
0.9
0.87
0.9
0.88
0.89
0.87
0.84
0.83
0.83
0.85
0.84
0.84
0.86
0.91
0.88
0.85
0.87
0.84
0.85
0.84
0.84
0.84
0.86
0.87
0.86
0.86
0.9
0.92
0.9
0.88
0.87
0.88
0.89
0.88
0.87
0.85
0.84
0.86
0.84
0.83
0.84
0.84
0.87
0.84
0.84
0.85
0.87
0.87
0.86
0.87
0.86
0.87
0.85
0.86
0.85
0.87
0.89
0.87
0.89
0.88
0.88
0.88
0.85
0.86
0.87
0.85
0.83
0.84
0.87
0.9
0.89
0.85
0.84
0.86
0.86
0.84
0.83
0.84
0.88
0.86
0.85
0.86
0.88
0.89
0.89
0.86
0.87
0.88
0.9
0.91
0.88
0.86
0.87
0.87
0.89
0.87
0.85
0.89
0.91
0.94
0.92
0.87
0.87
0.86
0.83
0.83
0.85
0.88
0.87
0.86
0.85
0.83
0.81
0.82
0.83
0.83
0.83
0.85
0.84
0.82
0.82
0.8
0.81
0.82
0.81
0.81
0.82
0.81
0.8
0.81
0.81
0.83
0.83
0.82
0.81
0.81
0.81
0.81
0.83
0.83
0.84
0.82
0.83
0.84
0.87
0.86
0.86
0.86
0.84
0.84
0.84
0.83
0.82
0.81
0.8
0.8
0.8
0.84
0.89
0.87
0.88
0.9
0.88
0.89
0.92
0.92
0.92
0.91
0.89
0.91
0.89
0.9
0.86
0.85
0.85
0.87
0.86
0.87
0.88
0.89
0.88
0.88
0.88
0.88
0.89
0.84
0.83
0.83
0.84
0.84
0.84
0.82
0.85
0.88
0.89
0.88
0.87
0.88
0.9
0.9
0.89
0.89
0.88
0.89
0.87
0.85
0.85
0.86
0.87
0.88
0.9
0.88
0.86
0.87
0.87
0.87
0.85
0.84
0.84
0.84
0.86
0.86
0.85
0.81
0.81
0.82
0.84
0.84
0.83
0.83
0.84
0.84
0.84
0.81
0.83
0.83
0.84
0.84
0.84
0.83
0.85
0.86
0.85
0.84
0.84
0.85
0.87
0.89
0.86
0.86
0.87
0.86
0.85
0.83
0.82
0.82
0.84
0.83
0.84
0.86
0.87
0.87
0.87
0.85
0.86
0.86
0.87
0.87
0.85
0.85
0.84
0.85
0.88
0.87
0.89
0.93
0.92
0.93
0.88
0.91
0.9
0.9
0.9
0.88
0.86
0.88
0.88
0.89
0.87
0.86
0.85
0.87
0.93
0.91
0.88
0.84
0.82
0.81
0.83
0.85
0.87
0.88
0.85
0.83
0.82
0.84
0.83
0.87
0.86
0.85
0.86
0.84
0.86
0.85
0.86
0.84
0.84
0.84
0.82
0.81
0.83
0.83
0.84
0.84
0.83
0.82
0.81
0.81
0.8
0.8
0.81
0.85
0.86
0.86
0.84
0.82
0.8
0.78
0.77
0.76
0.75
0.76
0.79
0.81
0.82
0.8
0.79
0.79
0.78
0.77
0.77
0.77
0.77
0.79
0.81
0.84
0.83
0.82
0.81
0.8
0.79
0.79
0.79
0.81
0.79
0.77
0.73
0.7
0.69
0.69
0.7
0.72
0.76
0.78
0.77
0.78
0.79
0.79
0.81
0.83
0.84
0.83
0.82
0.81
0.8
0.81
0.82
0.82
0.82
0.83
0.84
0.84
0.86
0.87
0.84
0.84
0.82
0.84
0.84
0.84
0.85
0.86
0.83
0.86
0.85
0.87
0.86
0.87
0.86
0.85
0.85
0.87
0.86
0.84
0.83
0.83
0.85
0.87
0.86
0.84
0.83
0.81
0.84
0.88
0.86
0.9
0.86
0.86
0.85
0.87
0.9
0.89
0.9
0.86
0.87
0.89
0.87
0.89
0.88
0.88
0.86
0.85
0.85
0.86
0.86
0.84
0.83
0.86
0.89
0.9
0.87
0.85
0.85
0.85
0.86
0.87
0.85
0.87
0.9
0.89
0.92
0.88
0.86
0.85
0.85
0.87
0.86
0.87
0.85
0.87
0.89
0.89
0.88
0.89
0.88
0.88
0.87
0.87
0.85
0.84
0.85
0.86
0.88
0.89
0.86
0.88
0.88
0.9
0.89
0.87
0.87
0.89
0.89
0.9
0.87
0.86
0.86
0.87
0.88
0.89
0.86
0.9
0.91
0.9
0.88
0.88
0.89
0.88
0.86
0.86
0.83
0.82
0.82
0.82
0.85
0.83
0.84
0.84
0.86
0.91
0.9
0.9
0.88
0.89
0.89
0.92
0.9
0.89
0.87
0.86
0.87
0.88
0.88
0.88
0.86
0.86
0.88
0.88
0.87
0.87
0.86
0.87
0.87
0.86
0.84
0.87
0.89
0.89
0.87
0.86
0.86
0.87
0.87
0.88
0.87
0.85
0.85
0.86
0.89
0.89
0.86
0.87
0.87
0.89
0.88
0.91
0.91
0.88
0.87
0.89
0.91
0.88
0.85
0.84
0.86
0.88
0.89
0.9
0.87
0.88
0.9
0.93
0.94
0.91
0.91
0.91
0.91
0.9
0.88
0.86
0.85
0.86
0.88
0.91
0.88
0.88
0.89
0.9
0.91
0.91
0.89
0.91
0.91
0.92
0.9
0.89
0.91
0.89
0.88
0.87
0.87
0.85
0.85
0.86
0.84
0.83
0.83
0.82
0.84
0.82
0.81
0.82
0.83
0.87
0.9
0.88
0.87
0.89
0.88
0.88
0.89
0.87
0.88
0.86
0.87
0.85
0.83
0.84
0.86
0.87
0.86
0.86
0.87
0.9
0.87
0.84
0.86
0.85
0.86
0.87
0.83
0.83
0.82
0.83
0.84
0.83
0.83
0.87
0.89
0.9
0.91
0.88
0.89
0.9
0.92
0.92
0.92
0.89
0.9
0.91
0.91
0.89
0.87
0.89
0.88
0.89
0.87
0.85
0.86
0.86
0.87
0.88
0.85
0.83
0.82
0.82
0.82
0.82
0.82
0.83
0.83
0.87
0.86
0.85
0.88
0.89
0.9
0.88
0.87
0.86
0.87
0.85
0.84
0.84
0.84
0.86
0.86
0.84
0.85
0.85
0.87
0.86
0.86
0.87
0.89
0.89
0.86
0.85
0.86
0.86
0.86
0.85
0.84
0.85
0.87
0.88
0.88
0.87
0.87
0.88
0.87
0.87
0.85
0.86
0.88
0.87
0.88
0.85
0.85
0.85
0.87
0.87
0.86
0.84
0.84
0.85
0.86
0.87
0.85
0.83
0.83
0.83
0.83
0.84
0.82
0.81
0.82
0.83
0.84
0.83
0.83
0.83
0.84
0.85
0.85
0.88
0.9
0.91
0.87
0.86
0.87
0.88
0.88
0.88
0.9
0.88
0.88
0.89
0.87
0.85
0.84
0.86
0.84
0.85
0.84
0.86
0.87
0.88
0.86
0.84
0.86
0.86
0.87
0.85
0.84
0.86
0.85
0.86
0.86
0.84
0.84
0.86
0.88
0.9
0.87
0.86
0.87
0.89
0.89
0.89
0.86
0.87
0.88
0.89
0.89
0.86
0.85
0.88
0.88
0.87
0.86
0.85
0.86
0.86
0.87
0.88
0.86
0.87
0.89
0.87
0.85
0.85
0.82
0.81
0.82
0.84
0.85
0.85
0.9
0.91
0.91
0.88
0.89
0.9
0.92
0.89
0.87
0.86
0.84
0.86
0.85
0.84
0.84
0.86
0.89
0.89
0.87
0.87
0.85
0.83
0.85
0.84
0.84
0.83
0.87
0.88
0.9
0.89
0.87
0.89
0.86
0.86
0.85
0.84
0.85
0.86
0.84
0.85
0.85
0.84
0.84
0.83
0.82
0.83
0.88
0.89
0.87
0.88
0.9
0.91
0.92
0.92
0.91
0.92
0.93
0.91
0.92
0.91
0.87
0.88
0.87
0.88
0.87
0.86
0.87
0.88
0.9
0.9
0.87
0.88
0.86
0.88
0.86
0.84
0.82
0.84
0.88
0.87
0.89
0.86
0.91
0.88
0.88
0.88
0.85
0.85
0.83
0.82
0.81
0.81
0.79
0.81
0.81
0.84
0.86
0.84
0.84
0.88
0.86
0.86
0.89
0.86
0.86
0.84
0.87
0.84
0.85
0.87
0.87
0.87
0.85
0.84
0.83
0.85
0.87
0.88
0.88
0.86
0.84
0.86
0.86
0.86
0.86
0.86
0.87
0.88
0.87
0.9
0.87
0.84
0.84
0.84
0.85
0.87
0.9
0.85
0.86
0.88
0.9
0.88
0.87
0.86
0.86
0.85
0.85
0.84
0.82
0.83
0.84
0.83
0.82
0.82
0.82
0.84
0.84
0.84
0.83
0.83
0.84
0.85
0.84
0.83
0.83
0.83
0.84
0.85
0.83
0.82
0.83
0.84
0.84
0.84
0.84
0.86
0.88
0.86
0.84
0.85
0.83
0.85
0.84
0.82
0.82
0.81
0.82
0.81
0.81
0.83
0.84
0.84
0.85
0.86
0.86
0.89
0.87
0.87
0.88
0.88
0.88
0.86
0.84
0.85
0.86
0.86
0.84
0.84
0.84
0.85
0.84
0.83
0.82
0.83
0.83
0.82
0.83
0.82
0.83
0.82
0.84
0.84
0.85
0.87
0.84
0.84
0.87
0.87
0.87
0.85
0.86
0.85
0.85
0.83
0.81
0.8
0.78
0.81
0.82
0.83
0.83
0.87
0.89
0.88
0.87
0.9
0.96
0.94
0.91
0.94
0.92
0.9
0.87
0.87
0.89
0.91
0.9
0.9
0.89
0.89
0.89
0.88
0.87
0.85
0.85
0.89
0.99
0.87
0.89
0.87
0.89
0.88
0.89
0.88
0.86
0.89
0.9
0.91
0.92
0.9
0.9
0.92
0.9
0.89
0.91
0.91
0.91
0.89
0.87
0.86
0.88
0.9
0.89
0.87
0.88
0.86
0.86
0.87
0.86
0.84
0.85
0.86
0.88
0.85
0.85
0.86
0.86
0.86
0.85
0.85
0.84
0.84
0.82
0.82
0.82
0.85
0.85
0.85
0.83
0.84
0.86
0.84
0.83
0.86
0.87
0.9
0.88
0.86
0.84
0.83
0.86
0.83
0.81
0.81
0.83
0.84
0.83
0.83
0.83
0.85
0.86
0.84
0.84
0.86
0.87
0.87
0.86
0.83
0.83
0.81
0.82
0.83
0.82
0.85
0.96
0.86
0.89
0.89
0.94
0.92
0.86
0.84
0.82
0.78
0.78
0.75
0.59
0.91
0.76
0.74
0.71
0.75
0.7
0.69
0.67
0.67
0.66
0.66
0.67
0.68
0.7
0.69
0.7
0.46
0.88
0.7
0.68
0.67
0.68
0.66
0.67
0.67
0.68
0.72
0.71
0.72
0.7
0.7
0.71
0.73
0.76
0.79
0.78
0.79
0.8
0.82
0.84
0.84
0.83
0.8
0.78
0.74
0.74
0.77
0.81
0.9
0.92
0.91
0.98
0.9
0.92
0.91
0.95
0.93
0.96
0.93
0.92
0.93
0.92
0.9
0.87
0.86
0.89
1
0.93
0.9
0.91
0.95
1.01
0.92
0.93
0.89
0.86
0.86
0.88
0.94
0.94
0.9
0.88
0.9
0.92
0.91
0.9
0.88
0.91
0.94
0.93
0.95
0.89
0.88
0.88
0.9
0.89
0.88
0.87
0.89
0.91
0.89
0.86
0.85
0.84
0.81
0.79
0.8
0.79
0.81
0.86
0.88
0.87
0.87
0.92
0.92
0.98
0.93
0.97
0.9
0.91
0.9
0.92
0.89
0.86
0.81
0.77
0.75
0.74
0.74
0.78
0.84
0.87
0.84
0.86
0.9
0.98
0.9
0.92
0.89
0.87
0.86
0.86
0.87
0.81
0.82
0.78
0.77
0.75
0.75
0.76
0.75
0.74
0.72
0.72
0.7
0.7
0.7
0.71
0.72
0.72
0.72
0.48
0.93
0.7
0.55
0.45
0.35
0.65
0.64
1.87
0.6
0.6
0.57
0.62
0.59
0.59
0.59
0.59
0.6
0.62
0.65
0.67
0.7
0.7
0.71
0.72
0.72
0.74
0.75
0.76
0.76
0.74
0.76
0.77
0.78
0.79
0.8
0.81
0.82
0.83
0.85
0.85
0.88
0.86
0.85
0.82
0.82
0.81
0.82
0.83
0.86
0.87
0.86
0.86
0.84
0.83
0.84
0.87
0.94
0.86
0.94
0.88
0.87
0.85
0.85
0.87
0.89
0.92
0.87
0.89
0.87
0.85
0.87
0.95
0.89
0.92
0.9
0.91
0.88
0.88
0.87
0.88
0.91
0.9
0.91
0.87
0.84
0.82
0.81
0.81
0.79
0.77
0.75
0.78
0.8
0.81
0.91
0.93
0.92
0.9
0.88
0.87
0.87
0.9
0.9
0.95
0.89
0.91
0.92
0.92
0.93
0.92
0.88
0.92
0.91
0.92
0.89
0.9
0.88
0.89
0.9
0.87
0.85
0.84
0.84
0.84
0.85
0.83
0.84
0.86
0.87
0.89
0.88
0.88
0.9
0.9
0.89
0.89
0.87
0.86
0.89
0.9
0.93
0.92
0.9
0.89
0.89
0.91
0.9
0.94
0.9
0.89
0.89
0.91
0.89
0.87
0.86
0.88
0.89
0.92
0.92
0.91
0.9
0.9
0.91
0.92
0.9
0.87
0.9
0.89
0.89
0.89
0.88
0.9
0.91
0.94
0.89
0.9
0.93
0.94
0.94
0.95
0.91
0.96
0.96
0.93
0.92
0.9
0.92
0.92
0.91
0.89
0.89
0.91
0.91
0.97
0.91
0.89
0.91
0.93
0.92
0.93
0.89
0.9
0.88
0.87
0.87
0.87
0.89
0.9
0.92
0.91
0.9
0.94
0.93
0.92
0.92
0.91
0.89
0.9
0.89
0.88
0.86
0.89
0.88
0.89
0.86
0.86
0.87
0.88
0.87
0.86
0.88
0.88
0.87
0.87
0.85
0.87
0.9
0.9
0.9
0.89
0.9
0.93
0.94
0.92
0.91
0.88
0.89
0.89
0.89
0.88
0.9
0.91
0.92
0.9
0.89
0.91
0.91
0.91
0.88
0.87
0.87
0.89
0.9
0.9
0.88
0.87
0.86
0.89
0.89
0.85
0.88
0.89
0.9
0.89
0.91
0.9
0.92
0.89
0.89
0.89
0.9
0.89
0.89
0.91
0.91
0.9
0.91
0.95
0.94
0.91
0.91
0.91
0.93
0.92
0.9
0.89
0.88
0.89
0.89
0.88
0.86
0.87
0.88
0.89
0.87
0.89
0.91
0.89
0.89
0.9
0.88
1
0.98
0.99
0.92
1.03
0.95
1.01
0.93
0.91
0.94
0.93
0.94
0.95
0.91
0.91
0.93
0.92
0.92
0.89
0.89
0.91
0.91
0.89
0.9
0.91
0.91
0.9
0.88
0.89
0.88
0.88
0.85
0.89
0.89
0.95
0.89
0.96
0.93
0.95
0.96
0.91
0.93
0.94
0.94
0.94
0.94
0.9
0.91
0.92
0.94
0.92
0.91
0.91
0.94
0.93
0.92
0.92
0.91
0.92
0.93
0.91
0.93
0.91
0.91
0.89
0.88
0.86
0.88
0.88
0.9
0.87
0.88
0.89
0.88
0.88
0.89
0.88
0.86
0.87
0.88
0.89
0.88
0.88
0.89
0.95
0.92
0.92
0.9
0.9
0.92
0.93
0.94
0.93
0.93
0.96
0.95
0.99
0.91
0.91
0.92
0.94
0.91
0.91
0.94
0.93
0.94
0.94
0.92
0.9
0.89
0.91
0.89
0.91
0.91
0.92
0.92
0.9
0.89
0.88
0.87
0.89
0.87
0.88
0.91
0.92
0.89
0.93
0.93
0.95
0.93
0.91
0.93
0.92
0.91
0.9
0.87
0.91
0.93
0.93
0.92
0.92
0.9
0.91
0.91
0.9
0.89
0.91
0.93
0.94
0.92
0.92
0.9
0.89
0.89
0.87
0.88
0.92
0.92
0.92
0.91
0.93
0.93
0.93
0.91
0.89
0.9
0.91
0.91
0.9
0.9
0.89
0.89
0.9
0.87
0.9
0.91
0.92
0.92
0.91
0.92
0.91
0.91
0.9
0.9
0.88
0.89
0.91
0.91
0.9
0.89
0.89
0.92
0.89
0.9
0.89
0.88
0.9
0.91
0.88
0.89
0.88
0.88
0.89
0.88
0.9
0.88
0.92
0.9
0.9
0.9
0.92
0.94
0.94
0.92
0.97
1.03
0.92
0.92
0.92
0.93
0.92
1.02
0.9
0.94
0.96
0.96
1.03
0.92
0.93
0.95
0.95
0.94
0.95
0.91
0.91
0.92
0.92
0.93
0.92
0.91
0.91
0.92
0.93
0.91
0.91
0.92
0.94
0.92
0.9
0.92
0.92
0.99
0.85
0.89
0.89
0.9
0.9
0.9
0.92
0.92
0.94
0.94
0.92
0.91
0.92
0.91
0.93
1.02
0.9
0.96
0.93
0.96
0.95
0.93
0.93
0.93
0.95
0.94
0.91
0.89
0.92
0.91
0.9
0.89
0.89
0.91
0.91
0.91
0.9
0.93
0.91
0.92
0.91
0.91
0.91
0.91
0.91
0.9
0.89
0.88
0.9
0.89
0.86
0.86
0.89
0.89
0.91
0.87
0.87
0.88
0.9
0.91
0.89
0.88
0.88
0.89
0.92
0.88
0.92
1
0.93
0.91
0.95
0.96
0.96
0.93
0.93
0.99
1.04
0.88
0.95
0.9
0.97
1.01
0.93
0.96
0.97
1.03
0.93
1
0.91
0.95
0.96
0.95
0.92
0.93
0.95
0.92
0.93
0.91
0.91
1
0.91
0.94
0.91
0.93
0.91
0.95
0.93
0.91
0.92
0.93
0.92
0.89
0.88
0.89
0.9
0.88
0.88
0.9
0.9
0.89
0.91
0.93
0.93
0.92
0.92
0.9
0.91
0.94
0.96
0.92
0.96
0.98
0.98
0.95
0.93
0.95
0.95
0.92
0.92
0.91
0.92
0.94
0.93
0.92
0.91
0.92
0.95
0.99
0.87
0.87
0.88
0.89
0.91
0.9
0.88
0.89
0.89
0.89
0.87
0.86
0.88
0.89
0.87
0.87
0.88
0.9
0.89
0.87
0.88
0.88
0.89
0.89
0.88
0.86
0.89
0.91
0.9
0.9
0.94
0.94
0.99
0.88
0.94
0.96
0.95
0.95
0.92
0.96
0.94
0.96
0.95
0.92
0.91
0.92
0.93
0.91
0.91
0.93
0.93
0.92
0.89
0.91
0.89
0.91
0.92
0.88
0.9
0.9
0.91
0.91
0.93
1.03
0.99
0.92
0.96
0.98
0.98
0.95
0.93
0.97
0.93
0.95
0.94
0.95
0.93
1.02
0.89
0.92
0.93
0.94
0.93
0.92
0.92
0.93
0.93
0.92
0.91
0.94
0.92
0.99
0.87
0.92
0.92
0.92
0.92
0.9
0.96
0.95
0.92
0.9
0.9
0.91
0.91
0.93
0.91
0.97
0.93
0.94
0.91
0.92
0.94
0.94
0.91
0.92
0.93
0.92
0.91
0.9
0.93
0.95
0.9
0.9
0.91
0.89
0.9
0.88
0.88
0.9
0.91
0.9
0.87
0.91
0.91
0.97
0.87
0.9
0.91
0.93
0.94
0.91
0.89
0.92
0.92
0.92
0.9
0.89
0.9
0.91
0.91
0.91
0.93
0.93
0.92
0.92
0.92
0.94
1
0.88
0.9
0.93
0.95
0.92
0.93
0.9
0.92
0.93
0.94
0.9
0.92
0.92
0.97
0.89
0.92
0.89
0.93
0.92
0.92
0.93
0.92
0.92
0.94
0.91
0.93
0.98
0.89
0.9
0.94
0.95
0.99
0.88
0.91
0.91
0.95
0.91
0.9
0.89
0.92
0.9
0.9
0.89
0.9
0.92
0.91
0.89
0.9
0.91
0.89
0.88
0.89
0.89
0.91
0.9
0.91
0.94
0.93
0.93
0.9
0.91
0.9
0.9
0.89
0.9
0.98
0.95
0.97
0.91
0.95
1.02
0.99
0.94
0.95
1
0.95
0.92
0.97
0.96
1.01
0.91
0.94
1
0.91
0.95
0.9
0.93
0.94
0.93
0.91
0.92
0.94
0.94
1.01
0.87
1.01
0.9
0.95
0.93
0.94
0.93
0.92
0.95
0.93
1
0.88
0.9
0.95
0.91
0.98
0.87
0.92
0.92
0.93
0.9
0.88
0.91
0.9
0.9
0.9
0.94
0.9
0.9
0.91
0.92
0.92
0.9
0.91
0.91
0.91
0.91
0.9
0.94
0.94
0.91
0.91
0.92
0.93
0.9
0.99
0.89
1
0.89
0.94
0.93
0.92
0.92
0.92
0.93
1
0.89
0.92
0.92
0.93
0.91
0.9
0.92
0.93
0.93
0.91
0.9
0.91
0.9
0.9
0.91
0.91
0.92
0.97
0.89
0.92
0.91
0.92
0.89
0.9
0.91
0.9
0.89
0.9
0.97
0.88
0.91
0.9
0.93
0.94
0.94
0.91
0.95
0.99
0.9
0.91
0.94
0.92
0.93
0.91
0.91
0.94
0.91
0.93
0.9
0.92
0.94
0.98
0.88
0.91
0.9
0.93
0.89
0.9
0.92
0.96
0.88
0.92
0.97
0.9
0.92
0.9
0.9
0.97
0.88
0.94
0.9
0.91
0.93
0.92
0.88
0.89
0.9
0.91
0.92
0.88
0.98
0.88
0.98
0.87
0.98
0.89
1
0.86
0.95
0.91
0.92
0.94
0.89
0.93
0.92
0.94
0.9
0.92
0.92
0.91
0.91
0.92
0.93
0.92
0.9
0.9
0.92
0.92
0.92
0.92
0.92
0.98
0.91
0.93
0.92
0.94
0.92
0.93
0.89
0.92
0.98
0.92
0.92
0.92
0.91
0.91
0.91
0.93
0.96
0.94
0.93
0.89
0.97
0.92
0.94
0.85
0.89
0.89
0.89
0.88
0.89
0.95
0.88
0.91
0.9
0.92
0.94
0.93
0.91
0.87
0.92
0.92
0.96
0.88
0.97
0.92
0.99
0.88
1
0.89
0.95
0.92
0.93
0.99
0.88
0.91
0.91
0.97
0.87
0.93
0.89
0.97
0.89
0.93
0.9
0.91
0.91
0.9
0.88
0.89
0.91
0.94
0.86
0.88
0.89
0.94
0.86
0.9
0.92
0.96
0.9
0.88
0.91
0.95
0.88
0.9
0.9
0.99
0.92
0.96
0.91
0.99
0.91
0.92
0.91
0.92
0.97
0.91
0.9
0.92
0.92
0.91
0.94
0.89
0.9
0.91
0.89
0.89
0.96
0.88
0.95
0.88
0.96
0.86
0.92
0.93
0.96
0.89
0.92
0.9
0.93
0.96
0.89
0.92
0.96
0.89
0.91
0.89
0.93
0.9
0.9
0.89
0.9
0.91
0.97
0.89
0.91
0.91
0.96
0.89
0.87
0.89
0.9
0.95
0.86
0.91
0.91
0.96
0.94
0.89
0.97
0.91
0.92
0.9
0.92
0.91
0.97
0.87
0.89
0.91
0.96
0.85
0.9
0.88
0.94
0.87
0.88
0.9
0.98
0.88
0.91
0.99
0.94
0.96
0.87
0.99
0.88
1
0.88
0.92
0.99
0.91
0.92
0.94
0.91
0.93
0.91
0.89
0.89
0.96
0.92
0.89
0.9
0.9
0.96
0.85
0.87
0.87
0.86
0.86
0.87
0.85
0.87
0.87
0.85
0.87
0.86
0.86
0.83
0.83
0.82
0.85
0.83
0.83
0.9
0.89
0.91
0.94
0.92
0.91
0.96
0.91
0.98
0.88
0.91
0.96
0.94
0.93
0.93
0.88
0.86
0.83
0.84
0.9
0.86
0.88
0.87
0.88
0.96
0.95
0.98
0.91
1.02
0.99
1
0.97
0.9
1
0.91
1.01
0.89
0.93
0.95
0.98
0.95
0.95
0.89
0.9
0.92
0.96
0.9
0.91
0.88
0.92
0.95
0.94
0.88
0.9
0.89
0.88
0.88
0.88
0.93
0.97
0.95
0.9
0.98
0.87
0.92
0.9
0.89
0.9
0.95
0.87
0.9
0.92
0.96
0.88
0.9
0.89
0.91
0.9
0.87
0.87
0.86
0.87
0.87
0.9
0.86
0.91
0.94
0.94
0.89
0.92
0.97
0.94
0.92
0.92
0.88
0.9
0.91
0.92
0.9
0.88
0.88
0.91
0.89
0.89
0.88
0.91
0.94
0.87
0.89
0.96
0.89
0.97
0.86
0.96
0.89
0.96
0.88
0.89
0.87
0.9
0.94
0.87
0.91
0.92
0.96
0.9
0.91
0.93
0.91
0.97
0.88
0.89
0.93
0.92
0.9
0.9
0.97
0.89
0.96
0.88
0.9
0.96
0.87
0.9
0.97
0.87
0.87
0.89
0.88
0.87
0.87
0.87
0.86
0.86
0.89
0.95
0.93
0.9
0.95
0.91
0.98
0.9
0.94
0.99
0.91
1
0.91
0.97
0.89
0.98
0.88
0.92
0.97
0.9
0.97
0.87
0.97
0.89
0.93
0.89
0.91
0.9
0.92
0.89
0.88
0.9
0.94
0.9
0.91
0.9
0.9
0.96
0.89
0.92
0.89
0.92
0.86
0.89
0.9
0.89
0.91
0.87
0.9
0.95
0.87
0.92
0.9
0.97
0.93
0.87
0.9
0.91
0.95
0.88
0.91
0.88
0.96
0.89
0.95
0.86
0.89
0.88
0.95
0.86
0.89
0.89
0.93
0.86
0.87
0.86
0.88
0.88
0.92
0.86
0.89
0.95
0.94
0.89
0.92
0.93
0.95
0.88
0.9
0.97
0.94
0.88
0.91
0.97
0.88
0.96
0.87
0.91
0.92
0.9
0.94
0.86
0.95
0.88
0.96
0.86
0.9
0.95
0.88
0.94
0.87
0.9
0.95
0.93
0.87
0.96
0.93
0.96
0.95
0.89
0.97
0.91
0.98
0.88
0.98
0.94
0.88
0.9
0.98
0.88
0.97
0.87
0.9
0.92
0.9
0.89
0.96
0.87
0.96
0.87
0.91
0.95
0.89
0.95
0.87
0.89
0.95
0.89
1.02
0.89
0.96
0.94
0.95
0.89
0.97
0.94
0.91
0.89
0.96
0.93
0.9
0.89
0.95
0.93
0.87
0.9
0.96
0.94
0.89
0.94
0.9
0.95
0.91
0.89
0.94
0.9
0.94
0.88
0.9
0.95
0.93
0.89
0.9
0.9
0.93
0.88
0.94
0.89
0.95
0.87
0.96
0.89
0.93
0.91
0.89
0.89
0.96
0.97
0.97
0.9
0.98
0.96
0.95
0.93
0.98
0.91
0.98
0.87
0.91
0.92
0.9
0.96
0.95
0.97
0.95
0.91
0.98
0.96
0.96
0.9
0.99
0.92
0.99
0.87
0.98
0.92
0.96
0.88
0.89
0.97
0.93
0.91
0.89
0.9
0.96
0.88
0.89
0.88
0.96
0.92
0.93
0.86
0.91
0.95
0.89
0.91
0.95
0.93
0.89
0.89
0.9
0.95
0.92
0.89
0.88
0.97
0.94
0.94
0.87
0.98
0.88
0.96
0.87
0.89
0.95
0.94
0.94
0.9
0.95
0.9
0.94
0.88
0.94
0.88
0.93
0.92
0.92
0.91
0.88
0.94
0.95
0.93
0.89
0.97
0.95
0.95
0.88
0.94
0.91
0.95
0.92
0.88
0.97
0.95
0.97
0.89
0.96
0.88
0.96
0.87
0.92
0.94
0.89
0.93
0.87
0.94
0.91
0.89
0.88
0.94
0.93
0.92
0.86
0.91
0.94
0.92
0.87
0.9
0.93
0.92
0.87
0.87
0.89
0.93
0.88
0.92
0.93
0.93
0.96
0.92
0.93
0.96
0.96
0.94
0.94
0.98
0.96
0.9
0.94
0.95
0.95
0.9
0.95
0.93
0.94
0.93
0.88
0.94
0.89
0.91
0.9
0.92
0.94
0.88
0.94
0.89
0.96
0.91
0.88
0.94
0.92
0.92
0.88
0.9
0.88
0.93
0.85
0.92
0.91
0.93
0.92
0.88
0.95
0.92
0.91
0.89
0.93
0.92
0.92
0.88
0.94
0.92
0.93
0.93
0.87
0.95
0.92
0.92
0.87
0.95
0.94
0.94
0.92
0.89
0.96
0.94
0.89
0.95
0.94
0.92
0.89
0.89
0.91
0.93
0.87
0.9
0.95
0.91
0.86
0.94
0.91
0.92
0.87
0.93
0.88
0.94
0.91
0.87
0.95
0.92
0.9
0.87
0.94
0.94
0.91
0.9
0.92
0.91
0.92
0.88
0.93
0.92
0.93
0.93
0.9
0.93
0.94
0.94
0.91
0.9
0.91
0.85
0.9
0.88
0.92
0.9
0.9
0.93
0.95
0.93
0.94
0.94
0.97
0.94
0.91
0.95
0.94
0.92
0.89
0.95
0.93
0.9
0.88
0.9
0.91
0.92
0.87
0.95
0.92
0.92
0.88
0.94
0.91
0.92
0.87
0.94
0.93
0.93
0.92
0.91
0.92
0.92
0.91
0.88
0.93
0.93
0.94
0.89
0.94
0.92
0.92
0.87
0.94
0.92
0.91
0.88
0.92
0.93
0.92
0.92
0.88
0.95
0.92
0.93
0.87
0.96
0.93
0.94
0.89
0.89
0.93
0.89
0.92
0.86
0.9
0.92
0.86
0.94
0.91
0.92
0.89
0.92
0.94
0.94
0.92
0.94
0.94
0.93
0.88
0.95
0.93
0.92
0.91
0.88
0.94
0.89
0.91
0.94
0.93
0.92
0.92
0.94
0.93
0.91
0.87
0.96
0.92
0.92
0.91
0.93
0.93
0.91
0.87
0.9
0.88
0.94
0.87
0.92
0.91
0.94
0.92
0.91
0.9
0.93
0.92
0.88
0.94
0.92
0.93
0.91
0.92
0.94
0.95
0.93
0.91
0.92
0.89
0.92
0.87
0.91
0.91
0.92
0.91
0.86
0.93
0.9
0.87
0.88
0.93
0.94
0.91
0.87
0.94
0.92
0.92
0.9
0.92
0.92
0.88
0.94
0.94
0.91
0.88
0.93
0.92
0.93
0.91
0.92
0.94
0.92
0.9
0.92
0.91
0.9
0.87
0.88
0.89
0.9
0.86
0.84
0.83
0.82
0.83
0.86
0.86
0.84
0.88
0.9
0.88
0.87
0.89
0.89
0.88
0.89
0.86
0.94
0.93
0.95
0.91
0.94
0.93
0.91
0.91
0.86
0.92
0.91
0.89
0.87
0.92
0.91
0.91
0.87
0.88
0.93
0.93
0.92
0.92
0.91
0.92
0.92
0.92
0.92
0.94
0.95
0.93
0.93
0.95
0.93
0.93
0.89
0.94
0.93
0.94
0.91
0.87
0.93
0.92
0.92
0.89
0.85
0.89
0.89
0.9
0.9
0.89
0.91
0.92
0.92
0.91
0.93
0.94
0.92
0.89
0.91
0.89
0.9
0.9
0.89
0.91
0.92
0.93
0.92
0.94
0.92
0.92
0.91
0.89
0.92
0.94
0.93
0.92
0.95
0.96
0.95
0.93
0.92
0.92
0.91
0.9
0.87
0.87
0.89
0.88
0.88
0.85
0.89
0.9
0.9
0.89
0.87
0.91
0.93
0.95
0.93
0.93
0.95
0.95
0.93
0.89
0.91
0.92
0.91
0.9
0.92
0.93
0.94
0.93
0.91
0.93
0.94
0.93
0.91
0.89
0.91
0.9
0.89
0.85
0.9
0.89
0.89
0.89
0.87
0.88
0.89
0.9
0.89
0.87
0.86
0.87
0.87
0.87
0.89
0.89
0.88
0.87
0.88
0.89
0.92
0.92
0.9
0.89
0.91
0.92
0.92
0.89
0.9
0.9
0.91
0.91
0.88
0.89
0.88
0.88
0.89
0.88
0.89
0.89
0.88
0.89
0.87
0.85
0.89
0.89
0.88
0.88
0.9
0.92
0.93
0.93
0.93
0.94
0.93
0.9
0.87
0.89
0.89
0.89
0.88
0.88
0.88
0.88
0.86
0.85
0.87
0.88
0.89
0.9
0.91
0.93
0.92
0.92
0.9
0.92
0.92
0.93
0.92
0.93
0.93
0.93
0.92
0.88
0.89
0.89
0.89
0.86
0.87
0.89
0.89
0.9
0.88
0.88
0.9
0.91
0.9
0.88
0.9
0.9
0.91
0.86
0.86
0.88
0.89
0.89
0.85
0.87
0.87
0.88
0.83
0.82
0.82
0.84
0.84
0.82
0.8
0.79
0.77
0.78
0.75
0.73
0.73
0.72
0.72
0.72
0.73
0.72
0.72
0.72
0.7
0.71
0.71
0.73
0.78
0.83
0.87
0.88
0.87
0.88
0.91
0.93
0.94
0.95
0.93
0.94
0.98
0.97
0.97
0.94
0.94
0.92
0.93
0.89
0.87
0.89
0.89
0.9
0.89
0.9
0.95
0.96
0.94
0.93
0.91
0.92
0.92
0.94
0.9
0.88
0.88
0.87
0.83
0.83
0.79
0.77
0.76
0.76
0.79
0.85
0.91
0.94
0.96
0.92
0.95
0.96
0.97
0.95
1
0.99
0.96
0.93
0.93
0.95
0.94
0.92
0.89
0.88
0.89
0.89
0.89
0.88
0.9
0.9
0.91
0.89
0.86
0.85
0.86
0.87
0.87
0.87
0.87
0.89
0.91
0.9
0.89
0.91
0.93
0.92
0.91
0.91
0.93
0.92
0.92
0.9
0.86
0.88
0.88
0.89
0.89
0.91
0.95
0.95
0.93
0.94
0.96
0.95
0.93
0.91
0.93
0.92
0.92
0.9
0.89
0.89
0.9
0.9
0.88
0.87
0.88
0.88
0.87
0.85
0.85
0.87
0.87
0.88
0.89
0.92
0.94
0.93
0.92
0.93
0.96
0.96
0.95
0.91
0.94
0.93
0.93
0.91
0.91
0.93
0.95
0.94
0.94
0.91
0.92
0.89
0.89
0.88
0.87
0.91
0.92
0.94
0.92
0.91
0.91
0.92
0.93
0.91
0.94
0.94
0.95
0.92
0.88
0.89
0.91
0.9
0.88
0.92
0.94
0.93
0.92
0.9
0.92
0.92
0.9
0.89
0.89
0.91
0.91
0.9
0.9
0.89
0.91
0.92
0.92
0.88
0.89
0.88
0.87
0.86
0.9
0.93
0.95
0.93
0.93
0.95
0.95
0.93
0.93
0.93
0.92
0.9
0.88
0.9
0.91
0.89
0.87
0.85
0.86
0.85
0.87
0.86
0.86
0.9
0.93
0.93
0.93
0.96
0.96
0.97
0.96
0.93
0.94
0.92
0.91
0.95
0.92
0.91
0.9
0.88
0.88
0.87
0.87
0.86
0.88
0.91
0.93
0.91
0.89
0.92
0.92
0.91
0.9
0.93
0.91
0.91
0.9
0.89
0.9
0.9
0.91
0.9
0.91
0.92
0.92
0.9
0.9
0.93
0.92
0.89
0.88
0.89
0.92
0.94
0.93
0.93
0.96
0.94
0.92
0.88
0.88
0.88
0.85
0.85
0.88
0.93
0.94
0.94
0.97
0.98
0.97
0.95
0.94
0.95
0.94
0.94
0.9
0.89
0.89
0.91
0.91
0.9
0.88
0.89
0.91
0.92
0.92
0.91
0.95
0.94
0.93
0.93
0.95
0.96
0.93
0.9
0.89
0.9
0.89
0.88
0.9
0.93
0.93
0.89
0.89
0.9
0.91
0.9
0.9
0.92
0.92
0.93
0.91
0.92
0.94
0.92
0.9
0.91
0.91
0.92
0.9
0.9
0.9
0.92
0.92
0.91
0.89
0.91
0.92
0.93
0.91
0.91
0.92
0.91
0.91
0.9
0.9
0.9
0.93
0.9
0.87
0.87
0.88
0.9
0.9
0.9
0.92
0.93
0.93
0.9
0.92
0.91
0.89
0.89
0.9
0.89
0.89
0.86
0.88
0.9
0.92
0.91
0.95
0.96
0.97
0.95
0.96
0.97
0.97
0.95
0.95
0.93
0.92
0.9
0.9
0.91
0.95
0.97
0.96
0.93
0.93
0.92
0.93
0.9
0.89
0.9
0.92
0.9
0.89
0.9
0.9
0.9
0.88
0.86
0.87
0.87
0.89
0.89
0.9
0.92
0.92
0.91
0.89
0.9
0.91
0.92
0.89
0.89
0.91
0.9
0.9
0.88
0.9
0.91
0.91
0.89
0.9
0.92
0.93
0.93
0.9
0.92
0.91
0.93
0.9
0.9
0.91
0.93
0.92
0.91
0.9
0.91
0.9
0.89
0.89
0.92
0.93
0.92
0.89
0.88
0.89
0.9
0.88
0.89
0.91
0.93
0.95
0.91
0.93
0.93
0.94
0.93
0.9
0.92
0.9
0.91
0.89
0.89
0.9
0.89
0.91
0.9
0.87
0.9
0.9
0.9
0.87
0.88
0.89
0.9
0.88
0.88
0.9
0.9
0.92
0.91
0.93
0.93
0.93
0.91
0.91
0.93
0.92
0.91
0.9
0.91
0.9
0.89
0.89
0.88
0.89
0.91
0.9
0.89
0.9
0.9
0.92
0.9
0.9
0.91
0.9
0.88
0.88
0.91
0.92
0.92
0.89
0.9
0.91
0.92
0.9
0.91
0.93
0.93
0.92
0.9
0.93
0.92
0.91
0.9
0.9
0.91
0.92
0.9
0.91
0.92
0.93
0.91
0.91
0.9
0.89
0.9
0.88
0.89
0.92
0.92
0.92
0.93
0.94
0.92
0.9
0.93
0.92
0.93
0.9
0.89
0.89
0.92
0.9
0.89
0.92
0.93
0.92
0.92
0.92
0.93
0.94
0.91
0.9
0.9
0.91
0.89
0.89
0.9
0.91
0.93
0.89
0.88
0.91
0.9
0.91
0.91
0.95
0.92
0.91
0.89
0.9
0.91
0.93
0.92
0.92
0.93
0.92
0.91
0.89
0.91
0.91
0.91
0.9
0.89
0.89
0.9
0.88
0.88
0.87
0.89
0.89
0.88
0.89
0.89
0.89
0.89
0.9
0.9
0.89
0.88
0.87
0.9
0.9
0.89
0.88
0.89
0.89
0.89
0.88
0.89
0.91
0.91
0.9
0.89
0.9
0.9
0.88
0.88
0.9
0.9
0.89
0.87
0.89
0.89
0.9
0.88
0.9
0.91
0.91
0.89
0.87
0.89
0.91
0.92
0.9
0.89
0.92
0.94
0.92
0.92
0.92
0.91
0.94
0.89
0.87
0.87
0.9
0.9
0.89
0.91
0.92
0.91
0.9
0.91
0.93
0.93
0.91
0.9
0.9
0.92
0.9
0.89
0.9
0.89
0.91
0.88
0.88
0.89
0.88
0.89
0.88
0.89
0.91
0.91
0.89
0.91
0.9
0.89
0.88
0.86
0.88
0.89
0.87
0.89
0.89
0.91
0.89
0.89
0.9
0.92
0.91
0.9
0.92
0.92
0.92
0.91
0.92
0.92
0.91
0.9
0.92
0.92
0.91
0.9
0.89
0.89
0.89
0.9
0.89
0.9
0.91
0.9
0.88
0.87
0.88
0.91
0.9
0.89
0.91
0.93
0.91
0.89
0.88
0.88
0.9
0.9
0.88
0.92
0.92
0.92
0.9
0.9
0.91
0.91
0.89
0.91
0.92
0.93
0.92
0.94
0.96
0.95
0.94
0.94
0.93
0.93
0.93
0.89
0.9
0.89
0.89
0.9
0.91
0.91
0.89
0.9
0.9
0.89
0.9
0.93
0.94
0.94
0.92
0.92
0.93
0.93
0.9
0.9
0.91
0.91
0.89
0.88
0.87
0.87
0.87
0.84
0.81
0.82
0.88
0.93
0.92
0.96
1.01
1.02
1.02
0.98
1.01
1.02
0.97
0.95
0.96
0.96
0.98
0.96
0.93
0.95
0.95
0.95
0.95
0.92
0.93
0.93
0.92
0.92
0.93
0.93
0.91
0.92
0.94
0.93
0.91
0.9
0.91
0.92
0.9
0.89
0.91
0.94
0.93
0.92
0.94
0.94
0.94
0.91
0.91
0.93
0.91
0.89
0.89
0.9
0.9
0.9
0.87
0.9
0.88
0.9
0.9
0.9
0.94
0.91
0.92
0.89
0.9
0.92
0.91
0.92
0.9
0.92
0.94
0.9
0.9
0.91
0.9
0.9
0.91
0.9
0.92
0.9
0.89
0.9
0.92
0.9
0.91
0.91
0.92
0.93
0.92
0.89
0.91
0.9
0.9
0.89
0.86
0.89
0.89
0.89
0.88
0.9
0.91
0.9
0.86
0.87
0.89
0.91
0.91
0.91
0.93
0.93
0.94
0.93
0.92
0.91
0.91
0.91
0.92
0.93
0.89
0.9
0.95
0.97
0.91
0.88
0.84
0.83
0.87
0.87
0.88
0.86
0.85
0.88
0.9
0.89
0.89
0.88
0.9
0.93
0.93
0.92
0.94
0.95
0.96
0.92
0.9
0.9
0.91
0.91
0.89
0.9
0.92
0.93
0.95
0.94
0.93
0.96
0.94
0.92
0.92
0.91
0.93
0.97
0.96
0.93
0.9
0.92
0.95
0.96
0.94
0.9
0.88
0.89
0.9
0.9
0.91
0.9
0.88
0.9
0.92
0.92
0.9
0.88
0.89
0.9
0.9
0.9
0.9
0.92
0.92
0.91
0.89
0.9
0.89
0.88
0.89
0.89
0.91
0.9
0.89
0.91
0.91
0.92
0.93
0.94
0.94
0.92
0.94
0.93
0.93
0.9
0.9
0.89
0.88
0.88
0.85
0.84
0.88
0.87
0.86
0.84
0.87
0.88
0.89
0.89
0.9
0.92
0.92
0.9
0.87
0.88
0.9
0.92
0.92
0.96
0.95
0.95
0.92
0.89
0.89
0.9
0.92
0.91
0.92
0.94
0.95
0.95
0.93
0.94
0.94
0.95
0.92
0.89
0.87
0.89
0.89
0.88
0.87
0.88
0.9
0.91
0.9
0.89
0.91
0.93
0.94
0.93
0.94
0.96
0.94
0.92
0.89
0.87
0.87
0.88
0.88
0.88
0.9
0.9
0.94
0.92
0.9
0.92
0.92
0.9
0.88
0.91
0.89
0.89
0.87
0.86
0.89
0.91
0.92
0.92
0.94
0.96
0.97
0.96
0.94
0.96
0.94
0.93
0.91
0.89
0.91
0.91
0.91
0.93
0.97
0.99
0.96
0.94
0.91
0.93
0.94
0.95
0.93
0.91
0.94
0.94
0.93
0.91
0.9
0.91
0.92
0.93
0.9
0.91
0.94
0.93
0.93
0.91
0.89
0.9
0.9
0.9
0.88
0.9
0.91
0.92
0.89
0.9
0.93
0.93
0.9
0.89
0.9
0.9
0.9
0.88
0.89
0.94
0.95
0.91
0.91
0.91
0.93
0.93
0.89
0.87
0.89
0.9
0.91
0.91
0.95
0.96
0.97
0.96
0.99
1
0.99
0.95
0.96
0.94
0.94
0.91
0.89
0.89
0.89
0.9
0.88
0.88
0.9
0.91
0.91
0.89
0.91
0.9
0.92
0.9
0.89
0.89
0.89
0.9
0.89
0.88
0.9
0.92
0.92
0.91
0.92
0.94
0.96
0.93
0.92
0.91
0.92
0.92
0.93
0.93
0.92
0.9
0.9
0.91
0.91
0.89
0.88
0.88
0.87
0.84
0.85
0.87
0.89
0.92
0.9
0.91
0.92
0.93
0.92
0.91
0.93
0.93
0.93
0.91
0.91
0.9
0.87
0.88
0.87
0.9
0.91
0.92
0.88
0.9
0.88
0.89
0.9
0.89
0.92
0.93
0.94
0.92
0.92
0.93
0.92
0.91
0.88
0.88
0.91
0.9
0.91
0.87
0.86
0.88
0.87
0.87
0.87
0.88
0.89
0.92
0.89
0.88
0.88
0.89
0.9
0.9
0.88
0.91
0.91
0.9
0.88
0.89
0.88
0.88
0.91
0.88
0.9
0.93
0.92
0.9
0.88
0.9
0.92
0.91
0.89
0.91
0.91
0.92
0.91
0.9
0.91
0.92
0.92
0.9
0.9
0.88
0.88
0.89
0.88
0.89
0.9
0.9
0.91
0.89
0.88
0.88
0.88
0.9
0.92
0.92
0.9
0.91
0.91
0.93
0.91
0.89
0.9
0.9
0.89
0.89
0.93
0.93
0.91
0.9
0.9
0.9
0.89
0.89
0.88
0.89
0.88
0.88
0.89
0.89
0.9
0.9
0.89
0.89
0.9
0.88
0.89
0.88
0.92
0.94
0.93
0.9
0.9
0.92
0.92
0.92
0.9
0.92
0.93
0.91
0.89
0.91
0.91
0.89
0.89
0.91
0.93
0.93
0.91
0.88
0.89
0.89
0.89
0.89
0.87
0.89
0.89
0.9
0.88
0.89
0.9
0.9
0.92
0.89
0.9
0.89
0.87
0.85
0.84
0.85
0.86
0.88
0.88
0.88
0.9
0.92
0.91
0.89
0.9
0.9
0.91
0.91
0.89
0.89
0.88
0.89
0.9
0.89
0.91
0.92
0.93
0.9
0.89
0.9
0.92
0.92
0.9
0.88
0.91
0.9
0.9
0.9
0.89
0.9
0.89
0.87
0.88
0.9
0.89
0.89
0.9
0.92
0.94
0.92
0.9
0.9
0.9
0.9
0.91
0.95
0.97
0.93
0.91
0.9
0.9
0.9
0.89
0.89
0.9
0.9
0.91
0.88
0.88
0.89
0.89
0.87
0.86
0.88
0.88
0.89
0.88
0.9
0.91
0.9
0.88
0.89
0.89
0.89
0.9
0.86
0.83
0.82
0.79
0.76
0.77
0.76
0.74
0.73
0.71
0.7
0.7
0.67
0.67
0.67
0.66
0.66
0.67
0.67
0.68
0.67
0.68
0.69
0.69
0.71
0.71
0.72
0.72
0.73
0.71
0.71
0.73
0.73
0.77
0.81
0.84
0.86
0.85
0.87
0.9
0.91
0.92
0.9
0.88
0.9
0.91
0.91
0.9
0.86
0.85
0.83
0.81
0.8
0.77
0.77
0.79
0.8
0.86
0.9
0.95
0.93
0.92
0.89
0.91
0.89
0.86
0.83
0.81
0.81
0.79
0.77
0.8
0.83
0.89
0.94
0.97
0.98
0.94
0.91
0.94
0.93
0.93
0.88
0.86
0.84
0.82
0.81
0.8
0.81
0.81
0.82
0.81
0.79
0.78
0.79
0.81
0.87
0.91
0.95
0.97
0.97
0.96
0.94
0.93
0.92
0.93
0.95
0.94
0.97
0.94
0.92
0.86
0.81
0.79
0.77
0.79
0.86
0.86
0.84
0.82
0.8
0.82
0.83
0.87
0.88
0.92
0.93
0.93
0.94
0.96
0.97
0.97
0.96
1.01
0.99
1
0.97
0.96
0.97
0.94
0.95
0.91
0.9
0.91
0.9
0.91
0.9
0.87
0.91
0.91
0.91
0.93
0.93
0.91
0.92
0.94
0.93
0.92
0.93
0.94
0.94
0.94
0.91
0.92
0.93
0.93
0.95
0.93
0.93
0.95
0.95
0.96
0.92
0.92
0.92
0.93
0.91
0.89
0.89
0.89
0.89
0.87
0.85
0.85
0.84
0.83
0.82
0.83
0.82
0.8
0.77
0.78
0.79
0.8
0.84
0.87
0.9
0.92
0.93
0.96
0.96
0.96
0.94
0.93
0.92
0.91
0.9
0.88
0.86
0.89
0.9
0.9
0.89
0.87
0.94
0.95
0.96
0.96
0.93
0.96
0.95
0.94
0.91
0.9
0.89
0.88
0.88
0.86
0.87
0.9
0.9
0.91
0.9
0.94
0.95
0.96
0.95
0.92
0.92
0.92
0.91
0.92
0.94
0.96
0.97
0.96
0.93
0.94
0.96
0.96
0.94
0.92
0.91
0.91
0.92
0.92
0.9
0.91
0.91
0.9
0.89
0.88
0.87
0.88
0.89
0.9
0.89
0.88
0.89
0.9
0.9
0.9
0.9
0.93
0.92
0.92
0.91
0.9
0.9
0.9
0.88
0.87
0.87
0.88
0.88
0.86
0.85
0.9
0.92
0.94
0.92
0.94
0.98
0.97
0.98
0.94
0.95
0.96
0.96
0.95
0.93
0.93
0.9
0.88
0.87
0.85
0.91
0.91
0.94
0.94
0.95
0.96
0.94
0.96
0.99
0.99
0.99
0.95
0.94
0.96
0.95
0.95
0.93
0.95
0.97
0.96
0.94
0.92
0.95
0.95
0.92
0.9
0.89
0.9
0.91
0.91
0.91
0.92
0.94
0.94
0.93
0.91
0.9
0.92
0.9
0.9
0.89
0.89
0.89
0.91
0.89
0.9
0.92
0.93
0.92
0.91
0.88
0.88
0.88
0.88
0.88
0.91
0.94
0.95
0.94
0.95
0.95
0.98
0.95
0.94
0.97
0.95
0.93
0.92
0.94
0.95
0.94
0.93
0.9
0.92
0.93
0.93
0.96
0.93
0.97
0.97
0.94
0.95
0.95
0.95
0.96
0.95
0.97
1
1.01
0.98
1.03
1
1.03
0.99
0.99
0.97
0.96
0.97
0.96
0.96
0.94
0.95
0.97
0.93
0.93
0.92
0.95
0.91
0.92
0.94
0.95
0.93
0.91
0.94
0.91
0.91
0.89
0.89
0.89
0.89
0.88
0.87
0.87
0.89
0.9
0.9
0.9
0.9
0.9
0.89
0.89
0.91
0.88
0.89
0.88
0.88
0.9
0.9
0.91
0.9
0.9
0.91
0.89
0.9
0.9
0.91
0.92
0.9
0.91
0.91
0.92
0.92
0.91
0.93
0.91
0.92
0.91
0.92
0.92
0.91
0.92
0.95
0.96
0.94
0.95
0.95
0.94
0.93
0.92
0.92
0.91
0.9
0.9
0.91
0.92
0.92
0.95
0.95
0.95
0.95
0.96
0.94
0.93
0.92
0.92
0.92
0.91
0.91
0.91
0.91
0.92
0.92
0.92
0.92
0.93
0.93
0.93
0.92
0.95
0.92
0.92
0.94
0.92
0.93
0.96
0.95
0.95
0.94
0.94
0.92
0.9
0.9
0.88
0.88
0.88
0.87
0.88
0.87
0.86
0.86
0.86
0.86
0.86
0.88
0.91
0.91
0.9
0.92
0.9
0.87
0.88
0.89
0.9
0.9
0.9
0.92
0.92
0.94
0.95
0.95
0.95
0.97
0.96
0.96
0.96
0.95
0.93
0.93
0.93
0.9
0.91
0.91
0.92
0.92
0.92
0.93
0.96
0.94
0.93
0.91
0.89
0.88
0.88
0.88
0.88
0.86
0.83
0.82
0.83
0.82
0.82
0.83
0.86
0.88
0.88
0.87
0.86
0.86
0.86
0.86
0.85
0.84
0.86
0.86
0.87
0.86
0.87
0.89
0.89
0.88
0.87
0.86
0.87
0.85
0.85
0.85
0.85
0.87
0.87
0.88
0.88
0.88
0.9
0.89
0.89
0.89
0.89
0.91
0.89
0.89
0.9
0.91
0.93
0.94
0.93
0.94
0.94
0.96
0.95
0.94
0.94
0.96
0.94
0.92
0.94
0.95
0.93
0.91
0.92
0.94
0.91
0.92
0.93
0.93
0.92
0.92
0.94
0.93
0.92
0.92
0.95
0.91
0.89
0.88
0.88
0.86
0.88
0.9
0.91
0.94
0.92
0.92
0.91
0.92
0.93
0.93
0.93
0.91
0.94
0.92
0.94
0.94
0.91
0.93
0.91
0.91
0.89
0.91
0.92
0.94
0.93
0.94
0.93
0.91
0.95
0.93
0.9
0.93
0.9
0.9
0.91
0.89
0.9
0.92
0.91
0.93
0.93
0.96
0.93
0.91
0.92
0.92
0.91
0.88
0.88
0.87
0.86
0.86
0.85
0.85
0.83
0.83
0.81
0.81
0.8
0.82
0.81
0.81
0.86
0.88
0.89
0.88
0.88
0.91
0.9
0.87
0.87
0.85
0.86
0.84
0.85
0.84
0.84
0.87
0.87
0.88
0.89
0.88
0.89
0.89
0.86
0.86
0.85
0.83
0.83
0.83
0.84
0.87
0.89
0.89
0.88
0.86
0.83
0.83
0.81
0.79
0.79
0.77
0.77
0.77
0.75
0.75
0.71
0.75
0.72
0.71
0.7
0.69
0.69
0.68
0.68
0.67
0.66
0.67
0.67
0.68
0.67
0.67
0.67
0.66
0.66
0.67
0.66
0.67
0.69
0.69
0.71
0.75
0.79
0.8
0.82
0.87
0.9
0.87
0.84
0.83
0.81
0.82
0.81
0.83
0.84
0.86
0.87
0.94
0.97
0.98
0.98
0.96
0.93
0.94
0.95
0.95
0.96
0.93
0.93
0.95
0.96
0.96
0.93
0.91
0.93
0.93
0.93
0.93
0.9
0.9
0.92
0.92
0.93
0.9
0.92
0.93
0.91
0.91
0.87
0.88
0.88
0.89
0.87
0.87
0.89
0.9
0.91
0.89
0.88
0.89
0.86
0.86
0.85
0.83
0.83
0.85
0.86
0.84
0.85
0.86
0.87
0.86
0.84
0.82
0.8
0.79
0.79
0.77
0.75
0.75
0.74
0.74
0.73
0.74
0.75
0.75
0.76
0.78
0.77
0.79
0.79
0.81
0.81
0.8
0.81
0.84
0.83
0.81
0.79
0.76
0.76
0.76
0.77
0.81
0.84
0.86
0.87
0.86
0.85
0.85
0.87
0.87
0.87
0.86
0.87
0.85
0.9
0.93
0.92
0.92
0.91
0.89
0.87
0.87
0.91
0.91
0.91
0.92
0.91
0.9
0.88
0.9
0.91
0.92
0.91
0.9
0.87
0.89
0.91
0.91
0.94
0.94
0.94
0.97
0.95
0.9
0.88
0.88
0.87
0.86
0.85
0.84
0.83
0.81
0.84
0.84
0.85
0.84
0.81
0.83
0.83
0.83
0.79
0.77
0.76
0.75
0.75
0.73
0.74
0.72
0.7
0.7
0.69
0.68
0.67
0.67
0.67
0.67
0.67
0.67
0.67
0.67
0.66
0.66
0.65
0.64
0.63
0.62
0.6
0.61
0.6
0.61
0.6
0.6
0.6
0.59
0.59
0.59
0.59
0.6
0.6
0.61
0.6
0.58
0.62
0.6
0.59
0.54
1.26
0.6
0.6
0.58
0.62
0.59
0.45
0.74
0.6
0.42
0.77
0.61
1.2
0.6
0.61
0.6
0.6
0.6
0.59
0.6
0.59
0.6
0.6
0.61
0.6
0.61
0.63
0.63
0.64
0.65
0.65
0.67
0.66
0.66
0.66
0.66
0.68
0.68
0.7
0.69
0.7
0.71
0.74
0.82
0.83
0.83
0.83
0.81
0.77
0.77
0.75
0.76
0.81
0.87
0.86
0.88
0.84
0.8
0.78
0.76
0.73
0.73
0.72
0.72
0.7
0.69
0.68
0.69
0.7
0.72
0.78
0.83
0.85
0.85
0.84
0.8
0.79
0.79
0.8
0.86
0.89
0.88
0.87
0.85
0.84
0.8
0.78
0.79
0.8
0.83
0.86
0.85
0.83
0.83
0.8
0.79
0.78
0.78
0.78
0.79
0.79
0.77
0.77
0.77
0.76
0.78
0.79
0.79
0.76
0.77
0.77
0.77
0.75
0.73
0.71
0.7
0.7
0.7
0.71
0.71
0.74
0.76
0.77
0.76
0.76
0.76
0.78
0.81
0.76
0.75
0.75
0.74
0.75
0.77
0.79
0.79
0.81
0.8
0.79
0.8
0.8
0.8
0.78
0.78
0.76
0.75
0.75
0.75
0.75
0.77
0.8
0.78
0.78
0.78
0.76
0.77
0.74
0.72
0.71
0.7
0.69
0.69
0.69
0.7
0.73
0.75
0.76
0.77
0.76
0.75
0.78
0.8
0.82
0.83
0.84
0.82
0.8
0.81
0.81
0.82
0.84
0.83
0.82
0.8
0.8
0.82
0.82
0.83
0.84
0.81
0.81
0.82
0.81
0.82
0.83
0.82
0.79
0.8
0.79
0.8
0.81
0.82
0.8
0.78
0.8
0.8
0.8
0.81
0.8
0.78
0.78
0.8
0.8
0.8
0.79
0.78
0.77
0.77
0.79
0.81
0.81
0.82
0.8
0.78
0.78
0.79
0.8
0.8
0.81
0.8
0.79
0.79
0.82
0.82
0.84
0.83
0.8
0.76
0.74
0.72
0.73
0.73
0.74
0.77
0.8
0.82
0.83
0.82
0.79
0.79
0.79
0.8
0.8
0.81
0.8
0.79
0.78
0.76
0.77
0.79
0.8
0.82
0.81
0.8
0.78
0.78
0.77
0.79
0.8
0.8
0.81
0.8
0.79
0.78
0.78
0.78
0.79
0.78
0.76
0.75
0.74
0.74
0.76
0.79
0.8
0.81
0.81
0.79
0.78
0.77
0.77
0.79
0.79
0.8
0.8
0.79
0.8
0.82
0.82
0.83
0.81
0.79
0.8
0.81
0.82
0.84
0.82
0.82
0.8
0.8
0.79
0.79
0.77
0.75
0.75
0.75
0.75
0.75
0.74
0.74
0.74
0.75
0.75
0.75
0.76
0.74
0.73
0.74
0.73
0.75
0.77
0.76
0.76
0.75
0.76
0.78
0.79
0.79
0.8
0.79
0.8
0.8
0.82
0.81
0.81
0.8
0.78
0.78
0.79
0.8
0.82
0.81
0.81
0.8
0.8
0.81
0.82
0.83
0.84
0.82
0.8
0.82
0.82
0.84
0.84
0.83
0.81
0.82
0.84
0.84
0.83
0.82
0.8
0.81
0.83
0.84
0.83
0.8
0.82
0.82
0.83
0.83
0.81
0.79
0.78
0.75
0.74
0.74
0.72
0.72
0.7
0.69
0.71
0.7
0.72
0.74
0.77
0.77
0.76
0.75
0.74
0.73
0.72
0.74
0.75
0.76
0.76
0.75
0.73
0.72
0.72
0.74
0.74
0.72
0.73
0.7
0.7
0.68
0.68
0.66
0.64
0.66
0.65
0.65
0.65
0.64
0.63
0.63
0.63
0.63
0.62
0.62
0.61
0.61
0.62
0.61
0.62
0.63
0.64
0.64
0.67
0.67
0.68
0.67
0.68
0.7
0.72
0.73
0.73
0.73
0.74
0.72
0.74
0.76
0.77
0.75
0.74
0.71
0.71
0.69
0.68
0.68
0.66
0.67
0.67
0.68
0.67
0.7
0.69
0.7
0.69
0.68
0.67
0.64
0.67
0.65
0.63
0.62
0.62
0.62
0.66
0.35
0.28
0.82
0.71
0.69
0.68
0.68
0.68
0.69
0.69
0.7
0.69
0.7
0.7
0.7
0.71
0.74
0.78
0.78
0.78
0.77
0.75
0.75
0.74
0.73
0.72
0.72
0.72
0.73
0.75
0.76
0.77
0.78
0.77
0.77
0.78
0.81
0.83
0.84
0.83
0.81
0.8
0.8
0.8
0.78
0.79
0.77
0.79
0.79
0.83
0.86
0.86
0.85
0.83
0.83
0.82
0.81
0.8
0.8
0.79
0.8
0.8
0.79
0.8
0.83
0.86
0.87
0.88
0.85
0.82
0.81
0.8
0.81
0.84
0.86
0.86
0.85
0.83
0.82
0.8
0.82
0.83
0.83
0.83
0.82
0.82
0.81
0.8
0.79
0.8
0.8
0.81
0.81
0.82
0.8
0.78
0.77
0.78
0.81
0.82
0.81
0.8
0.78
0.8
0.81
0.8
0.8
0.78
0.77
0.78
0.78
0.8
0.8
0.79
0.8
0.81
0.82
0.82
0.8
0.79
0.79
0.8
0.79
0.79
0.77
0.76
0.77
0.78
0.8
0.78
0.77
0.79
0.78
0.79
0.8
0.78
0.77
0.78
0.79
0.8
0.78
0.78
0.79
0.79
0.81
0.8
0.79
0.81
0.8
0.81
0.8
0.8
0.8
0.8
0.81
0.8
0.78
0.79
0.8
0.8
0.8
0.78
0.78
0.78
0.8
0.8
0.79
0.77
0.78
0.78
0.78
0.77
0.75
0.75
0.74
0.74
0.73
0.72
0.72
0.72
0.73
0.73
0.73
0.72
0.72
0.73
0.72
0.74
0.73
0.72
0.73
0.73
0.72
0.72
0.73
0.74
0.75
0.75
0.76
0.77
0.79
0.81
0.8
0.79
0.79
0.8
0.82
0.83
0.85
0.84
0.83
0.82
0.81
0.81
0.81
0.83
0.86
0.89
0.87
0.87
0.85
0.83
0.82
0.8
0.81
0.8
0.8
0.79
0.79
0.8
0.8
0.81
0.81
0.82
0.82
0.81
0.8
0.78
0.76
0.77
0.8
0.82
0.83
0.81
0.79
0.81
0.82
0.83
0.83
0.82
0.83
0.82
0.83
0.8
0.82
0.82
0.82
0.82
0.81
0.81
0.8
0.8
0.82
0.85
0.85
0.83
0.85
0.85
0.85
0.82
0.84
0.84
0.83
0.82
0.81
0.83
0.83
0.83
0.83
0.82
0.81
0.81
0.81
0.81
0.8
0.81
0.81
0.83
0.81
0.82
0.83
0.83
0.82
0.81
0.81
0.82
0.81
0.83
0.82
0.79
0.8
0.79
0.82
0.83
0.85
0.82
0.83
0.84
0.84
0.83
0.81
0.83
0.82
0.84
0.81
0.82
0.83
0.84
0.84
0.83
0.83
0.82
0.82
0.8
0.8
0.8
0.82
0.82
0.81
0.83
0.83
0.84
0.83
0.81
0.81
0.81
0.81
0.82
0.81
0.8
0.81
0.8
0.82
0.81
0.79
0.8
0.81
0.81
0.8
0.8
0.81
0.82
0.82
0.81
0.81
0.81
0.82
0.82
0.83
0.82
0.82
0.81
0.82
0.82
0.81
0.79
0.79
0.78
0.8
0.78
0.77
0.79
0.8
0.82
0.81
0.8
0.81
0.82
0.82
0.82
0.8
0.78
0.77
0.78
0.79
0.78
0.77
0.79
0.81
0.83
0.84
0.82
0.84
0.84
0.85
0.83
0.82
0.82
0.84
0.83
0.83
0.82
0.81
0.81
0.82
0.82
0.81
0.83
0.85
0.85
0.84
0.82
0.82
0.81
0.82
0.8
0.79
0.8
0.82
0.83
0.83
0.82
0.82
0.83
0.82
0.83
0.81
0.82
0.83
0.82
0.82
0.8
0.8
0.81
0.81
0.8
0.79
0.79
0.79
0.82
0.84
0.83
0.83
0.84
0.86
0.84
0.83
0.81
0.82
0.81
0.8
0.8
0.8
0.82
0.84
0.83
0.82
0.84
0.84
0.83
0.82
0.8
0.79
0.79
0.78
0.77
0.77
0.78
0.8
0.81
0.81
0.8
0.82
0.82
0.84
0.83
0.81
0.82
0.81
0.82
0.81
0.8
0.8
0.8
0.8
0.79
0.8
0.81
0.82
0.83
0.83
0.81
0.83
0.84
0.85
0.83
0.83
0.84
0.84
0.83
0.83
0.81
0.81
0.82
0.83
0.82
0.82
0.81
0.82
0.82
0.8
0.81
0.81
0.83
0.85
0.86
0.84
0.84
0.84
0.86
0.87
0.85
0.84
0.83
0.83
0.81
0.81
0.84
0.85
0.87
0.85
0.84
0.87
0.87
0.89
0.86
0.88
0.87
0.88
0.88
0.85
0.85
0.87
0.87
0.86
0.87
0.85
0.85
0.85
0.85
0.84
0.84
0.86
0.88
0.87
0.84
0.83
0.83
0.84
0.84
0.83
0.83
0.84
0.86
0.85
0.83
0.81
0.82
0.83
0.87
0.85
0.83
0.82
0.85
0.85
0.87
0.86
0.84
0.85
0.86
0.86
0.86
0.84
0.84
0.83
0.82
0.82
0.81
0.81
0.79
0.8
0.8
0.8
0.81
0.82
0.81
0.81
0.83
0.83
0.83
0.84
0.82
0.84
0.84
0.86
0.85
0.84
0.85
0.84
0.83
0.83
0.83
0.83
0.83
0.84
0.82
0.82
0.82
0.83
0.82
0.82
0.81
0.82
0.82
0.82
0.79
0.81
0.78
0.78
0.78
0.78
0.77
0.76
0.75
0.74
0.72
0.71
0.7
0.69
0.69
0.68
0.67
0.68
0.68
0.68
0.7
0.69
0.69
0.69
0.67
0.67
0.66
0.65
0.64
0.65
0.65
0.65
0.66
0.67
0.67
0.69
0.69
0.71
0.72
0.75
0.79
0.78
0.82
0.84
0.88
0.89
0.91
0.91
0.93
0.94
0.91
0.9
0.93
0.95
0.94
0.91
0.87
0.85
0.84
0.87
0.9
0.87
0.86
0.92
0.94
0.95
0.94
0.89
0.87
0.9
0.91
0.92
0.92
0.89
0.93
0.92
0.91
0.91
0.92
0.92
0.89
0.92
0.89
0.9
0.91
0.88
0.9
0.91
0.94
0.95
0.91
0.92
0.95
0.94
0.95
0.93
0.88
0.86
0.86
0.87
0.9
0.89
0.88
0.91
0.93
0.94
0.92
0.89
0.87
0.88
0.88
0.87
0.85
0.84
0.87
0.88
0.88
0.87
0.86
0.86
0.88
0.89
0.87
0.85
0.87
0.87
0.88
0.86
0.85
0.87
0.88
0.88
0.86
0.85
0.88
0.87
0.87
0.85
0.84
0.85
0.86
0.85
0.87
0.84
0.84
0.85
0.86
0.83
0.82
0.84
0.84
0.85
0.84
0.81
0.85
0.85
0.84
0.83
0.82
0.84
0.84
0.86
0.85
0.86
0.87
0.87
0.88
0.86
0.85
0.86
0.88
0.88
0.88
0.86
0.87
0.87
0.87
0.85
0.82
0.85
0.87
0.86
0.85
0.83
0.83
0.85
0.87
0.85
0.83
0.84
0.85
0.85
0.83
0.82
0.83
0.83
0.84
0.84
0.83
0.85
0.85
0.88
0.84
0.82
0.84
0.84
0.85
0.83
0.81
0.82
0.83
0.83
0.83
0.85
0.86
0.87
0.86
0.83
0.86
0.84
0.85
0.85
0.85
0.86
0.88
0.86
0.84
0.84
0.84
0.86
0.86
0.84
0.87
0.88
0.89
0.86
0.86
0.85
0.85
0.85
0.83
0.82
0.84
0.84
0.86
0.84
0.82
0.84
0.85
0.86
0.85
0.84
0.82
0.83
0.83
0.83
0.83
0.83
0.86
0.86
0.88
0.85
0.84
0.85
0.85
0.85
0.85
0.84
0.86
0.89
0.89
0.87
0.86
0.86
0.88
0.87
0.86
0.83
0.85
0.84
0.83
0.82
0.82
0.83
0.83
0.84
0.81
0.79
0.81
0.82
0.84
0.82
0.82
0.83
0.85
0.85
0.84
0.83
0.85
0.85
0.85
0.85
0.83
0.83
0.85
0.85
0.83
0.84
0.85
0.86
0.86
0.85
0.86
0.86
0.86
0.85
0.84
0.84
0.85
0.86
0.86
0.84
0.83
0.84
0.84
0.84
0.84
0.82
0.83
0.84
0.84
0.83
0.81
0.83
0.83
0.86
0.85
0.82
0.8
0.8
0.8
0.81
0.8
0.8
0.82
0.84
0.85
0.86
0.86
0.86
0.83
0.84
0.82
0.84
0.83
0.82
0.84
0.83
0.85
0.85
0.83
0.84
0.86
0.86
0.84
0.82
0.82
0.8
0.82
0.82
0.8
0.83
0.85
0.87
0.87
0.86
0.86
0.88
0.88
0.86
0.84
0.84
0.84
0.85
0.86
0.84
0.83
0.86
0.87
0.88
0.89
0.85
0.83
0.85
0.84
0.87
0.83
0.82
0.83
0.84
0.83
0.81
0.82
0.82
0.83
0.84
0.82
0.82
0.84
0.86
0.86
0.85
0.85
0.84
0.85
0.85
0.84
0.83
0.84
0.83
0.84
0.84
0.82
0.84
0.85
0.85
0.86
0.84
0.85
0.86
0.87
0.87
0.86
0.84
0.84
0.85
0.83
0.83
0.81
0.82
0.83
0.86
0.85
0.83
0.84
0.85
0.86
0.85
0.84
0.84
0.86
0.87
0.87
0.85
0.84
0.84
0.85
0.87
0.85
0.83
0.84
0.85
0.85
0.83
0.85
0.85
0.85
0.85
0.83
0.83
0.84
0.86
0.84
0.85
0.85
0.87
0.85
0.84
0.84
0.84
0.84
0.85
0.83
0.86
0.87
0.88
0.88
0.85
0.86
0.86
0.87
0.87
0.86
0.84
0.86
0.85
0.87
0.85
0.85
0.86
0.88
0.87
0.85
0.86
0.87
0.88
0.88
0.86
0.88
0.88
0.89
0.87
0.85
0.84
0.83
0.84
0.83
0.83
0.87
0.89
0.89
0.86
0.88
0.89
0.88
0.87
0.86
0.89
0.88
0.89
0.86
0.87
0.89
0.88
0.92
0.86
0.84
0.83
0.86
0.9
0.88
0.88
0.92
0.93
0.9
0.9
0.91
0.91
0.91
0.87
0.87
0.88
0.87
0.87
0.86
0.87
0.88
0.9
0.88
0.89
0.88
0.89
0.87
0.85
0.87
0.86
0.88
0.87
0.84
0.86
0.86
0.87
0.87
0.84
0.85
0.87
0.89
0.88
0.85
0.84
0.82
0.8
0.8
0.79
0.81
0.86
0.88
0.86
0.9
0.93
0.95
0.93
0.92
0.94
0.93
0.92
0.89
0.88
0.89
0.88
0.89
0.88
0.88
0.9
0.89
0.91
0.9
0.88
0.87
0.88
0.9
0.89
0.87
0.88
0.88
0.9
0.88
0.86
0.87
0.88
0.88
0.88
0.85
0.86
0.86
0.86
0.86
0.83
0.81
0.83
0.83
0.84
0.83
0.83
0.82
0.85
0.87
0.89
0.86
0.86
0.86
0.88
0.87
0.85
0.83
0.84
0.85
0.86
0.87
0.86
0.88
0.88
0.88
0.87
0.88
0.88
0.89
0.87
0.87
0.88
0.87
0.88
0.86
0.88
0.89
0.9
0.88
0.86
0.87
0.86
0.87
0.85
0.85
0.86
0.88
0.86
0.86
0.87
0.89
0.9
0.88
0.87
0.88
0.87
0.86
0.85
0.83
0.85
0.85
0.84
0.83
0.83
0.85
0.86
0.88
0.87
0.84
0.85
0.86
0.84
0.84
0.84
0.85
0.87
0.87
0.87
0.84
0.84
0.85
0.84
0.82
0.84
0.85
0.86
0.86
0.84
0.85
0.85
0.86
0.85
0.85
0.87
0.89
0.87
0.86
0.88
0.89
0.89
0.86
0.86
0.87
0.89
0.88
0.85
0.86
0.86
0.88
0.88
0.86
0.86
0.87
0.88
0.86
0.87
0.88
0.88
0.85
0.86
0.87
0.88
0.88
0.85
0.87
0.85
0.86
0.84
0.82
0.84
0.85
0.87
0.84
0.86
0.87
0.87
0.88
0.85
0.86
0.88
0.88
0.86
0.84
0.87
0.86
0.86
0.84
0.83
0.84
0.86
0.85
0.84
0.85
0.85
0.87
0.85
0.85
0.85
0.85
0.84
0.83
0.84
0.84
0.85
0.84
0.82
0.84
0.87
0.84
0.83
0.83
0.84
0.84
0.84
0.83
0.84
0.86
0.86
0.85
0.85
0.85
0.86
0.87
0.86
0.84
0.85
0.87
0.88
0.86
0.85
0.86
0.87
0.87
0.84
0.85
0.85
0.85
0.83
0.82
0.84
0.84
0.87
0.87
0.86
0.88
0.88
0.88
0.87
0.84
0.85
0.85
0.85
0.85
0.83
0.85
0.85
0.86
0.84
0.85
0.85
0.86
0.84
0.85
0.87
0.88
0.89
0.85
0.86
0.86
0.87
0.86
0.85
0.85
0.86
0.85
0.86
0.83
0.84
0.83
0.84
0.83
0.82
0.84
0.85
0.85
0.86
0.83
0.83
0.84
0.84
0.85
0.84
0.83
0.84
0.84
0.85
0.84
0.87
0.89
0.9
0.9
0.86
0.85
0.85
0.85
0.85
0.84
0.86
0.89
0.87
0.84
0.85
0.86
0.87
0.87
0.85
0.89
0.88
0.89
0.88
0.86
0.88
0.88
0.87
0.86
0.86
0.87
0.88
0.85
0.87
0.87
0.87
0.86
0.84
0.86
0.84
0.85
0.85
0.83
0.84
0.84
0.87
0.85
0.85
0.87
0.86
0.87
0.84
0.84
0.84
0.85
0.85
0.85
0.83
0.84
0.85
0.85
0.85
0.87
0.89
0.87
0.86
0.87
0.89
0.88
0.86
0.87
0.86
0.87
0.86
0.86
0.86
0.87
0.86
0.85
0.87
0.85
0.86
0.84
0.85
0.85
0.86
0.87
0.84
0.84
0.84
0.84
0.85
0.83
0.83
0.84
0.84
0.83
0.83
0.84
0.86
0.86
0.85
0.85
0.86
0.86
0.86
0.83
0.85
0.85
0.86
0.86
0.85
0.86
0.87
0.88
0.87
0.85
0.86
0.86
0.87
0.87
0.84
0.86
0.87
0.88
0.87
0.86
0.87
0.85
0.87
0.86
0.85
0.87
0.89
0.88
0.86
0.84
0.86
0.86
0.85
0.83
0.83
0.84
0.85
0.84
0.82
0.85
0.85
0.87
0.85
0.87
0.89
0.87
0.87
0.85
0.87
0.86
0.86
0.85
0.85
0.87
0.88
0.89
0.85
0.86
0.88
0.88
0.87
0.85
0.85
0.87
0.9
0.9
0.88
0.89
0.89
0.89
0.88
0.87
0.85
0.84
0.87
0.85
0.86
0.89
0.91
0.9
0.88
0.89
0.9
0.89
0.88
0.86
0.88
0.88
0.87
0.85
0.86
0.87
0.87
0.84
0.84
0.83
0.82
0.83
0.82
0.82
0.83
0.85
0.85
0.84
0.86
0.86
0.88
0.86
0.85
0.86
0.85
0.86
0.88
0.85
0.84
0.86
0.86
0.87
0.86
0.85
0.86
0.89
0.88
0.86
0.87
0.89
0.9
0.87
0.88
0.88
0.86
0.87
0.88
0.89
0.87
0.85
0.87
0.87
0.86
0.87
0.84
0.86
0.88
0.88
0.87
0.84
0.88
0.87
0.86
0.85
0.84
0.84
0.84
0.87
0.85
0.86
0.87
0.88
0.88
0.86
0.86
0.86
0.83
0.83
0.85
0.85
0.87
0.87
0.87
0.88
0.89
0.87
0.87
0.89
0.88
0.88
0.85
0.86
0.87
0.87
0.85
0.86
0.85
0.87
0.87
0.85
0.86
0.86
0.86
0.87
0.83
0.84
0.84
0.85
0.84
0.84
0.85
0.88
0.89
0.86
0.87
0.87
0.88
0.87
0.85
0.86
0.87
0.87
0.85
0.88
0.89
0.9
0.88
0.86
0.88
0.87
0.85
0.84
0.85
0.85
0.87
0.85
0.85
0.87
0.86
0.86
0.84
0.85
0.85
0.87
0.85
0.83
0.85
0.85
0.84
0.85
0.84
0.86
0.86
0.87
0.86
0.86
0.87
0.88
0.88
0.86
0.87
0.88
0.87
0.85
0.86
0.85
0.86
0.84
0.84
0.85
0.85
0.84
0.83
0.86
0.86
0.84
0.83
0.84
0.83
0.84
0.84
0.84
0.86
0.87
0.89
0.88
0.86
0.88
0.87
0.88
0.87
0.86
0.87
0.89
0.87
0.86
0.87
0.87
0.86
0.85
0.87
0.89
0.88
0.87
0.86
0.88
0.88
0.87
0.85
0.85
0.85
0.87
0.85
0.86
0.86
0.88
0.85
0.86
0.85
0.87
0.87
0.85
0.87
0.88
0.89
0.89
0.85
0.87
0.87
0.86
0.85
0.85
0.85
0.84
0.83
0.81
0.83
0.84
0.83
0.82
0.84
0.85
0.86
0.86
0.85
0.87
0.86
0.86
0.85
0.88
0.88
0.89
0.86
0.86
0.88
0.88
0.9
0.9
0.87
0.88
0.89
0.89
0.89
0.88
0.89
0.89
0.89
0.87
0.89
0.87
0.87
0.87
0.88
0.88
0.88
0.85
0.87
0.85
0.87
0.87
0.85
0.85
0.85
0.86
0.86
0.84
0.86
0.86
0.85
0.85
0.87
0.87
0.88
0.87
0.87
0.87
0.88
0.85
0.87
0.87
0.87
0.85
0.84
0.85
0.86
0.87
0.85
0.85
0.86
0.89
0.89
0.88
0.88
0.89
0.89
0.89
0.87
0.88
0.88
0.88
0.87
0.84
0.87
0.9
0.86
0.85
0.81
0.82
0.85
0.9
0.92
0.91
0.87
0.9
0.89
0.91
0.87
0.9
0.89
0.91
0.88
0.87
0.87
0.86
0.86
0.86
0.85
0.86
0.84
0.84
0.85
0.87
0.85
0.84
0.85
0.87
0.87
0.85
0.85
0.86
0.88
0.87
0.86
0.86
0.87
0.87
0.86
0.87
0.87
0.87
0.87
0.85
0.87
0.88
0.87
0.85
0.87
0.87
0.89
0.86
0.86
0.87
0.88
0.88
0.86
0.86
0.87
0.85
0.85
0.83
0.86
0.87
0.87
0.86
0.86
0.85
0.85
0.83
0.84
0.85
0.86
0.84
0.86
0.87
0.89
0.87
0.85
0.86
0.87
0.87
0.85
0.86
0.86
0.87
0.86
0.86
0.86
0.88
0.88
0.86
0.86
0.86
0.88
0.87
0.87
0.84
0.86
0.88
0.89
0.85
0.87
0.88
0.89
0.87
0.85
0.87
0.89
0.9
0.87
0.88
0.9
0.89
0.9
0.86
0.88
0.88
0.9
0.87
0.86
0.88
0.9
0.9
0.86
0.89
0.89
0.89
0.86
0.87
0.87
0.88
0.86
0.84
0.86
0.87
0.87
0.87
0.85
0.86
0.87
0.87
0.87
0.85
0.86
0.87
0.87
0.86
0.87
0.87
0.88
0.87
0.88
0.87
0.89
0.86
0.87
0.87
0.88
0.87
0.86
0.86
0.88
0.87
0.86
0.86
0.84
0.86
0.83
0.83
0.83
0.82
0.85
0.86
0.86
0.85
0.84
0.87
0.86
0.88
0.85
0.84
0.86
0.87
0.87
0.84
0.87
0.85
0.88
0.87
0.86
0.85
0.84
0.85
0.84
0.83
0.82
0.82
0.85
0.86
0.85
0.85
0.87
0.89
0.88
0.86
0.86
0.88
0.89
0.86
0.84
0.85
0.87
0.85
0.85
0.83
0.84
0.86
0.85
0.86
0.86
0.87
0.86
0.85
0.87
0.87
0.87
0.85
0.87
0.87
0.88
0.87
0.85
0.86
0.87
0.87
0.85
0.85
0.86
0.87
0.87
0.85
0.88
0.87
0.89
0.86
0.86
0.85
0.87
0.88
0.86
0.85
0.88
0.89
0.89
0.86
0.88
0.88
0.88
0.87
0.87
0.87
0.87
0.85
0.85
0.87
0.88
0.88
0.87
0.88
0.9
0.89
0.87
0.85
0.86
0.87
0.87
0.85
0.87
0.87
0.87
0.85
0.87
0.87
0.88
0.86
0.86
0.87
0.88
0.88
0.85
0.86
0.88
0.88
0.85
0.85
0.85
0.85
0.85
0.83
0.86
0.86
0.86
0.88
0.85
0.89
0.88
0.87
0.86
0.88
0.89
0.89
0.87
0.87
0.88
0.88
0.87
0.86
0.87
0.89
0.89
0.87
0.85
0.86
0.87
0.86
0.84
0.85
0.85
0.85
0.86
0.87
0.85
0.86
0.87
0.88
0.86
0.86
0.88
0.89
0.89
0.85
0.87
0.87
0.86
0.86
0.87
0.88
0.88
0.87
0.87
0.91
0.91
0.88
0.86
0.87
0.84
0.85
0.85
0.87
0.86
0.89
0.88
0.91
0.89
0.91
0.9
0.91
0.9
0.87
0.89
0.89
0.88
0.86
0.84
0.85
0.85
0.87
0.88
0.86
0.87
0.9
0.89
0.88
0.86
0.89
0.86
0.87
0.86
0.86
0.86
0.88
0.86
0.86
0.86
0.87
0.87
0.85
0.84
0.85
0.86
0.86
0.85
0.86
0.89
0.89
0.87
0.9
0.9
0.91
0.91
0.89
0.91
0.93
0.91
0.87
0.88
0.87
0.89
0.88
0.86
0.9
0.89
0.91
0.88
0.87
0.88
0.88
0.88
0.86
0.87
0.85
0.88
0.89
0.86
0.87
0.89
0.88
0.86
0.86
0.86
0.87
0.89
0.86
0.87
0.87
0.88
0.86
0.85
0.85
0.86
0.86
0.85
0.84
0.85
0.87
0.88
0.87
0.88
0.89
0.9
0.88
0.88
0.89
0.89
0.88
0.87
0.88
0.88
0.88
0.85
0.87
0.89
0.86
0.85
0.84
0.85
0.85
0.86
0.85
0.87
0.87
0.88
0.85
0.85
0.86
0.87
0.88
0.87
0.86
0.86
0.86
0.84
0.83
0.84
0.86
0.86
0.85
0.86
0.86
0.87
0.86
0.84
0.85
0.87
0.87
0.87
0.85
0.87
0.88
0.87
0.85
0.87
0.86
0.87
0.85
0.86
0.87
0.87
0.87
0.87
0.89
0.91
0.91
0.89
0.86
0.89
0.87
0.87
0.85
0.84
0.86
0.87
0.87
0.85
0.87
0.89
0.89
0.87
0.87
0.84
0.85
0.85
0.85
0.84
0.84
0.83
0.82
0.81
0.82
0.86
0.88
0.87
0.87
0.89
0.89
0.87
0.85
0.85
0.86
0.88
0.85
0.86
0.85
0.85
0.84
0.81
0.84
0.85
0.85
0.83
0.85
0.85
0.86
0.84
0.84
0.84
0.86
0.87
0.84
0.86
0.86
0.89
0.85
0.86
0.86
0.88
0.87
0.85
0.84
0.86
0.86
0.87
0.85
0.86
0.86
0.88
0.86
0.87
0.9
0.89
0.88
0.88
0.89
0.88
0.9
0.86
0.89
0.87
0.89
0.88
0.86
0.87
0.86
0.85
0.85
0.84
0.84
0.85
0.84
0.84
0.84
0.86
0.86
0.84
0.86
0.86
0.88
0.88
0.86
0.87
0.89
0.88
0.87
0.88
0.89
0.89
0.86
0.88
0.87
0.87
0.88
0.84
0.85
0.84
0.86
0.86
0.85
0.87
0.87
0.89
0.86
0.85
0.84
0.84
0.83
0.83
0.86
0.89
0.92
0.88
0.9
0.92
0.91
0.87
0.87
0.86
0.87
0.87
0.84
0.86
0.85
0.86
0.87
0.85
0.84
0.88
0.88
0.88
0.85
0.87
0.87
0.87
0.86
0.84
0.85
0.84
0.84
0.82
0.82
0.83
0.86
0.88
0.86
0.91
0.94
0.92
0.91
0.87
0.86
0.86
0.84
0.85
0.85
0.86
0.86
0.85
0.86
0.9
0.9
0.88
0.88
0.88
0.89
0.89
0.88
0.88
0.89
0.9
0.89
0.88
0.87
0.89
0.87
0.88
0.88
0.89
0.89
0.87
0.86
0.85
0.86
0.86
0.84
0.82
0.83
0.85
0.88
0.86
0.85
0.88
0.88
0.88
0.87
0.85
0.86
0.87
0.88
0.88
0.87
0.87
0.88
0.88
0.85
0.86
0.86
0.86
0.86
0.82
0.82
0.8
0.82
0.82
0.81
0.8
0.83
0.86
0.89
0.87
0.86
0.9
0.91
0.92
0.89
0.86
0.88
0.87
0.87
0.9
0.89
0.88
0.88
0.88
0.87
0.85
0.87
0.88
0.88
0.88
0.87
0.87
0.86
0.87
0.86
0.84
0.86
0.87
0.87
0.86
0.87
0.88
0.89
0.88
0.86
0.87
0.87
0.86
0.85
0.82
0.82
0.82
0.84
0.85
0.86
0.87
0.91
0.9
0.89
0.87
0.88
0.87
0.87
0.85
0.87
0.89
0.89
0.88
0.84
0.84
0.85
0.86
0.84
0.87
0.88
0.88
0.88
0.89
0.87
0.87
0.86
0.84
0.84
0.83
0.85
0.84
0.82
0.83
0.83
0.87
0.86
0.86
0.85
0.86
0.86
0.86
0.85
0.85
0.86
0.86
0.87
0.85
0.88
0.86
0.86
0.84
0.83
0.83
0.84
0.86
0.86
0.85
0.85
0.85
0.86
0.84
0.85
0.85
0.85
0.87
0.86
0.86
0.87
0.88
0.88
0.87
0.84
0.84
0.82
0.84
0.84
0.83
0.87
0.87
0.88
0.88
0.87
0.9
0.89
0.9
0.87
0.87
0.87
0.88
0.87
0.88
0.88
0.87
0.86
0.86
0.87
0.87
0.88
0.86
0.85
0.85
0.85
0.86
0.86
0.84
0.84
0.84
0.85
0.86
0.84
0.84
0.85
0.87
0.87
0.85
0.86
0.87
0.87
0.87
0.85
0.85
0.86
0.86
0.86
0.84
0.83
0.84
0.85
0.85
0.84
0.84
0.85
0.85
0.86
0.83
0.85
0.84
0.84
0.84
0.83
0.85
0.87
0.86
0.84
0.86
0.86
0.84
0.83
0.85
0.85
0.85
0.85
0.85
0.86
0.88
0.87
0.86
0.84
0.85
0.84
0.85
0.84
0.83
0.84
0.85
0.86
0.86
0.85
0.86
0.87
0.86
0.84
0.85
0.85
0.86
0.86
0.84
0.85
0.87
0.88
0.85
0.85
0.87
0.88
0.89
0.87
0.87
0.87
0.87
0.86
0.85
0.86
0.86
0.87
0.86
0.85
0.84
0.84
0.85
0.84
0.83
0.84
0.84
0.85
0.84
0.83
0.85
0.84
0.86
0.86
0.84
0.86
0.86
0.87
0.85
0.83
0.84
0.84
0.85
0.84
0.85
0.86
0.86
0.88
0.85
0.87
0.86
0.86
0.87
0.85
0.85
0.85
0.85
0.84
0.85
0.82
0.83
0.82
0.81
0.81
0.8
0.82
0.82
0.82
0.84
0.85
0.87
0.86
0.85
0.86
0.86
0.85
0.86
0.84
0.86
0.86
0.87
0.86
0.85
0.85
0.86
0.86
0.85
0.84
0.85
0.85
0.84
0.84
0.84
0.85
0.86
0.86
0.84
0.84
0.83
0.82
0.83
0.82
0.83
0.85
0.85
0.85
0.84
0.87
0.88
0.89
0.86
0.87
0.86
0.88
0.85
0.85
0.85
0.86
0.86
0.84
0.86
0.87
0.87
0.88
0.86
0.88
0.88
0.88
0.86
0.85
0.86
0.87
0.86
0.85
0.83
0.85
0.86
0.84
0.84
0.83
0.83
0.84
0.82
0.82
0.84
0.85
0.87
0.84
0.85
0.85
0.86
0.88
0.85
0.85
0.84
0.85
0.85
0.84
0.85
0.86
0.88
0.85
0.86
0.88
0.88
0.87
0.86
0.85
0.87
0.87
0.85
0.85
0.85
0.86
0.85
0.85
0.84
0.86
0.87
0.87
0.84
0.86
0.85
0.85
0.84
0.84
0.87
0.89
0.9
0.87
0.88
0.88
0.89
0.87
0.85
0.86
0.87
0.86
0.86
0.85
0.86
0.87
0.86
0.84
0.86
0.87
0.87
0.84
0.83
0.83
0.83
0.84
0.84
0.84
0.85
0.86
0.88
0.85
0.87
0.87
0.89
0.87
0.85
0.85
0.85
0.85
0.86
0.84
0.85
0.84
0.85
0.84
0.82
0.83
0.83
0.83
0.82
0.81
0.81
0.83
0.85
0.84
0.83
0.83
0.85
0.84
0.84
0.83
0.84
0.85
0.85
0.84
0.86
0.87
0.88
0.88
0.87
0.89
0.87
0.88
0.85
0.85
0.84
0.85
0.85
0.84
0.84
0.85
0.84
0.83
0.85
0.85
0.87
0.85
0.85
0.85
0.86
0.89
0.86
0.86
0.86
0.89
0.88
0.89
0.85
0.88
0.87
0.87
0.86
0.85
0.86
0.85
0.83
0.86
0.86
0.86
0.86
0.84
0.85
0.86
0.86
0.85
0.85
0.85
0.86
0.85
0.83
0.84
0.85
0.85
0.84
0.86
0.86
0.89
0.87
0.87
0.87
0.88
0.86
0.87
0.88
0.89
0.87
0.86
0.87
0.88
0.86
0.86
0.84
0.84
0.85
0.85
0.85
0.84
0.85
0.87
0.87
0.84
0.85
0.85
0.86
0.86
0.86
0.87
0.89
0.91
0.87
0.88
0.89
0.88
0.88
0.86
0.83
0.86
0.87
0.88
0.85
0.87
0.87
0.89
0.87
0.86
0.85
0.88
0.88
0.87
0.86
0.87
0.87
0.86
0.86
0.86
0.86
0.87
0.84
0.85
0.86
0.87
0.87
0.85
0.86
0.86
0.87
0.84
0.87
0.87
0.88
0.85
0.85
0.84
0.85
0.86
0.83
0.85
0.88
0.87
0.85
0.88
0.88
0.89
0.86
0.88
0.88
0.88
0.85
0.87
0.86
0.87
0.85
0.85
0.86
0.86
0.87
0.84
0.85
0.84
0.86
0.83
0.85
0.86
0.85
0.84
0.83
0.84
0.84
0.85
0.84
0.84
0.85
0.86
0.86
0.84
0.86
0.85
0.87
0.85
0.85
0.85
0.86
0.86
0.84
0.85
0.85
0.87
0.87
0.85
0.88
0.86
0.87
0.85
0.87
0.87
0.87
0.86
0.86
0.87
0.9
0.87
0.86
0.88
0.89
0.9
0.88
0.88
0.88
0.89
0.88
0.85
0.86
0.86
0.86
0.85
0.86
0.86
0.85
0.84
0.86
0.83
0.85
0.88
0.87
0.87
0.84
0.86
0.86
0.87
0.87
0.86
0.86
0.86
0.87
0.86
0.86
0.86
0.87
0.86
0.84
0.85
0.85
0.84
0.83
0.83
0.82
0.81
0.82
0.82
0.83
0.84
0.85
0.84
0.85
0.86
0.88
0.84
0.85
0.84
0.86
0.86
0.85
0.87
0.87
0.88
0.86
0.87
0.88
0.86
0.86
0.84
0.86
0.85
0.85
0.85
0.85
0.87
0.88
0.85
0.83
0.83
0.84
0.84
0.84
0.86
0.87
0.89
0.87
0.87
0.87
0.88
0.89
0.87
0.87
0.88
0.89
0.86
0.86
0.87
0.88
0.88
0.87
0.87
0.87
0.87
0.87
0.84
0.88
0.86
0.88
0.85
0.85
0.88
0.88
0.87
0.85
0.86
0.85
0.87
0.85
0.84
0.81
0.79
0.8
0.83
0.87
0.86
0.87
0.89
0.89
0.9
0.88
0.91
0.91
0.9
0.91
0.88
0.84
0.82
0.82
0.85
0.88
0.86
0.82
0.83
0.82
0.82
0.81
0.79
0.78
0.77
0.77
0.76
0.75
0.75
0.76
0.77
0.77
0.75
0.76
0.75
0.75
0.75
0.74
0.75
0.73
0.74
0.73
0.69
0.73
0.69
0.69
0.68
0.67
0.65
0.65
0.65
0.65
0.64
0.63
0.64
0.63
0.62
0.62
0.62
0.61
0.61
0.61
0.6
0.6
0.6
0.6
0.6
0.6
0.6
0.6
0.61
0.62
0.63
0.62
0.64
0.63
0.63
0.63
0.63
0.64
0.67
0.7
0.78
0.83
0.86
0.82
0.8
0.79
0.79
0.79
0.8
0.81
0.85
0.83
0.82
0.86
0.88
0.91
0.94
0.91
0.88
0.89
0.91
0.92
0.91
0.88
0.87
0.83
0.81
0.82
0.79
0.76
0.76
0.78
0.78
0.81
0.83
0.87
0.87
0.87
0.85
0.84
0.81
0.81
0.8
0.79
0.76
0.75
0.77
0.81
0.83
0.89
0.93
0.93
0.92
0.9
0.87
0.89
0.91
0.9
0.9
0.88
0.92
0.92
0.92
0.92
0.89
0.89
0.89
0.9
0.89
0.9
0.94
0.96
0.96
0.94
0.91
0.91
0.94
0.97
0.94
0.94
0.9
0.92
0.94
0.94
0.93
0.92
0.9
0.9
0.91
0.92
0.91
0.88
0.86
0.86
0.86
0.84
0.82
0.81
0.8
0.79
0.77
0.77
0.75
0.75
0.76
0.77
0.8
0.84
0.88
0.89
0.87
0.86
0.87
0.89
0.91
0.89
0.88
0.9
0.9
0.89
0.9
0.86
0.87
0.85
0.87
0.88
0.86
0.89
0.91
0.93
0.93
0.91
0.89
0.88
0.87
0.87
0.86
0.86
0.9
0.93
0.92
0.91
0.9
0.93
0.92
0.91
0.9
0.9
0.9
0.9
0.91
0.9
0.89
0.93
0.92
0.94
0.93
0.89
0.89
0.88
0.88
0.88
0.87
0.88
0.9
0.91
0.89
0.88
0.84
0.87
0.91
0.91
0.89
0.88
0.89
0.88
0.87
0.85
0.85
0.88
0.92
0.9
0.88
0.9
0.89
0.9
0.89
0.89
0.91
0.92
0.92
0.9
0.89
0.88
0.89
0.89
0.9
0.89
0.87
0.89
0.92
0.92
0.91
0.89
0.91
0.9
0.91
0.91
0.88
0.87
0.88
0.89
0.88
0.86
0.87
0.89
0.9
0.9
0.86
0.85
0.87
0.87
0.86
0.87
0.89
0.9
0.9
0.87
0.89
0.9
0.9
0.9
0.87
0.89
0.9
0.89
0.89
0.87
0.86
0.84
0.85
0.83
0.83
0.84
0.88
0.9
0.89
0.87
0.9
0.91
0.89
0.89
0.85
0.88
0.88
0.88
0.87
0.86
0.85
0.88
0.88
0.91
0.88
0.9
0.93
0.92
0.91
0.88
0.87
0.88
0.87
0.88
0.86
0.86
0.88
0.9
0.89
0.9
0.89
0.89
0.86
0.85
0.86
0.88
0.87
0.86
0.89
0.9
0.9
0.89
0.86
0.85
0.86
0.85
0.84
0.85
0.88
0.91
0.92
0.91
0.95
0.96
0.96
0.95
0.96
0.96
0.94
0.93
0.91
0.92
0.93
0.92
0.9
0.89
0.87
0.88
0.88
0.9
0.88
0.88
0.89
0.91
0.9
0.89
0.9
0.92
0.94
0.94
0.91
0.92
0.94
0.94
0.93
0.9
0.91
0.9
0.89
0.86
0.85
0.83
0.88
0.91
0.92
0.89
0.9
0.94
0.95
0.94
0.97
0.98
0.97
0.95
0.95
0.94
0.94
0.91
0.9
0.93
0.9
0.89
0.87
0.88
0.9
0.9
0.88
0.85
0.84
0.85
0.85
0.85
0.83
0.86
0.89
0.9
0.91
0.89
0.91
0.91
0.91
0.89
0.88
0.91
0.92
0.9
0.89
0.89
0.91
0.93
0.94
0.9
0.93
0.95
0.92
0.88
0.89
0.92
0.95
0.97
0.93
0.98
0.98
0.97
0.95
0.91
0.93
0.93
0.93
0.91
0.91
0.92
0.91
0.9
0.88
0.87
0.9
0.92
0.91
0.88
0.89
0.89
0.89
0.87
0.88
0.9
0.91
0.92
0.9
0.88
0.89
0.88
0.89
0.89
0.87
0.89
0.89
0.91
0.89
0.88
0.9
0.91
0.92
0.91
0.91
0.92
0.9
0.89
0.9
0.9
0.89
0.89
0.88
0.89
0.89
0.89
0.87
0.87
0.9
0.92
0.94
0.9
0.92
0.91
0.9
0.91
0.88
0.9
0.9
0.91
0.89
0.93
0.94
0.95
0.96
0.92
0.89
0.89
0.88
0.88
0.85
0.87
0.9
0.93
0.91
0.93
0.98
1.01
0.98
0.96
0.98
0.98
0.98
0.94
0.91
0.91
0.91
0.94
0.91
0.9
0.93
0.94
0.95
0.93
0.91
0.93
0.93
0.94
0.92
0.9
0.92
0.94
0.93
0.92
0.88
0.92
0.91
0.9
0.89
0.9
0.91
0.91
0.9
0.88
0.89
0.91
0.91
0.9
0.88
0.91
0.91
0.93
0.91
0.89
0.9
0.9
0.9
0.88
0.89
0.88
0.87
0.89
0.9
0.91
0.91
0.89
0.88
0.9
0.92
0.91
0.89
0.88
0.91
0.92
0.93
0.9
0.9
0.91
0.89
0.87
0.85
0.86
0.88
0.88
0.85
0.89
0.9
0.89
0.88
0.86
0.84
0.86
0.89
0.92
0.91
0.92
0.95
0.96
0.93
0.93
0.96
0.96
0.93
0.93
0.89
0.91
0.91
0.9
0.89
0.86
0.88
0.89
0.9
0.89
0.89
0.89
0.9
0.9
0.87
0.87
0.88
0.89
0.89
0.86
0.9
0.91
0.92
0.91
0.88
0.91
0.92
0.93
0.89
0.89
0.91
0.91
0.9
0.89
0.89
0.92
0.92
0.89
0.88
0.9
0.9
0.91
0.88
0.91
0.92
0.93
0.92
0.88
0.89
0.9
0.89
0.87
0.88
0.89
0.91
0.9
0.89
0.91
0.91
0.92
0.88
0.87
0.88
0.9
0.9
0.89
0.89
0.9
0.9
0.92
0.88
0.91
0.93
0.94
0.93
0.9
0.91
0.93
0.92
0.92
0.88
0.86
0.87
0.89
0.88
0.87
0.9
0.88
0.9
0.88
0.87
0.89
0.92
0.93
0.91
0.91
0.94
0.94
0.95
0.93
0.91
0.92
0.93
0.92
0.89
0.9
0.91
0.91
0.92
0.88
0.88
0.9
0.91
0.89
0.9
0.92
0.93
0.91
0.89
0.9
0.91
0.92
0.91
0.91
0.92
0.92
0.94
0.9
0.93
0.92
0.91
0.9
0.89
0.89
0.9
0.88
0.87
0.88
0.9
0.9
0.88
0.89
0.9
0.91
0.92
0.89
0.89
0.89
0.9
0.89
0.86
0.88
0.88
0.86
0.85
0.87
0.88
0.89
0.9
0.86
0.87
0.87
0.89
0.87
0.88
0.92
0.94
0.94
0.92
0.96
0.95
0.94
0.93
0.94
0.92
0.93
0.89
0.87
0.88
0.89
0.9
0.88
0.9
0.91
0.91
0.89
0.88
0.9
0.91
0.9
0.87
0.9
0.9
0.88
0.86
0.85
0.87
0.89
0.87
0.88
0.9
0.91
0.91
0.89
0.88
0.9
0.89
0.88
0.88
0.9
0.9
0.9
0.87
0.89
0.88
0.89
0.87
0.87
0.89
0.91
0.91
0.88
0.89
0.91
0.9
0.89
0.88
0.89
0.89
0.88
0.86
0.85
0.87
0.86
0.87
0.85
0.87
0.87
0.89
0.87
0.88
0.89
0.89
0.87
0.91
0.89
0.89
0.87
0.83
0.85
0.87
0.88
0.87
0.89
0.91
0.94
0.94
0.93
0.92
0.93
0.94
0.92
0.9
0.88
0.89
0.87
0.87
0.86
0.86
0.85
0.86
0.9
0.93
0.95
0.92
0.93
0.95
0.95
0.95
0.91
0.92
0.93
0.92
0.89
0.89
0.89
0.88
0.88
0.88
0.89
0.91
0.89
0.89
0.89
0.91
0.89
0.88
0.9
0.93
0.94
0.91
0.91
0.93
0.96
0.93
0.91
0.91
0.92
0.93
0.93
0.91
0.88
0.89
0.9
0.9
0.87
0.89
0.91
0.91
0.9
0.88
0.91
0.9
0.88
0.87
0.88
0.9
0.92
0.87
0.88
0.9
0.91
0.91
0.88
0.88
0.9
0.91
0.92
0.9
0.88
0.92
0.92
0.94
0.93
0.89
0.91
0.9
0.91
0.89
0.86
0.87
0.9
0.91
0.88
0.89
0.91
0.92
0.91
0.89
0.9
0.9
0.9
0.9
0.88
0.9
0.9
0.91
0.9
0.9
0.9
0.9
0.89
0.87
0.89
0.91
0.91
0.9
0.93
0.93
0.91
0.89
0.89
0.9
0.9
0.9
0.88
0.88
0.86
0.86
0.87
0.84
0.84
0.88
0.92
0.91
0.89
0.93
0.95
0.94
0.92
0.92
0.94
0.94
0.92
0.92
0.93
0.93
0.92
0.92
0.93
0.93
0.93
0.92
0.9
0.9
0.93
0.92
0.9
0.91
0.92
0.93
0.92
0.89
0.9
0.9
0.92
0.89
0.88
0.87
0.89
0.91
0.88
0.87
0.89
0.91
0.9
0.89
0.9
0.91
0.92
0.91
0.89
0.89
0.9
0.89
0.88
0.86
0.88
0.89
0.9
0.9
0.87
0.89
0.9
0.9
0.88
0.89
0.89
0.9
0.88
0.88
0.9
0.9
0.89
0.86
0.89
0.89
0.92
0.89
0.9
0.91
0.91
0.88
0.87
0.89
0.88
0.88
0.87
0.87
0.89
0.9
0.9
0.86
0.86
0.85
0.86
0.87
0.85
0.86
0.88
0.9
0.88
0.88
0.91
0.9
0.91
0.88
0.9
0.87
0.85
0.85
0.86
0.87
0.86
0.85
0.87
0.89
0.87
0.86
0.88
0.88
0.87
0.86
0.87
0.88
0.89
0.86
0.87
0.88
0.89
0.88
0.87
0.9
0.9
0.9
0.9
0.88
0.9
0.91
0.92
0.89
0.88
0.88
0.91
0.92
0.91
0.89
0.91
0.91
0.92
0.89
0.89
0.9
0.93
0.88
0.87
0.87
0.89
0.89
0.89
0.9
0.93
0.94
0.91
0.91
0.92
0.92
0.91
0.88
0.9
0.91
0.9
0.88
0.9
0.9
0.91
0.89
0.9
0.92
0.93
0.9
0.88
0.9
0.91
0.9
0.88
0.88
0.9
0.91
0.89
0.88
0.89
0.91
0.91
0.89
0.89
0.9
0.92
0.9
0.88
0.89
0.91
0.9
0.9
0.87
0.9
0.92
0.91
0.9
0.91
0.89
0.9
0.89
0.87
0.87
0.89
0.87
0.84
0.88
0.88
0.88
0.87
0.89
0.9
0.91
0.87
0.88
0.87
0.89
0.87
0.87
0.9
0.9
0.91
0.9
0.89
0.89
0.89
0.89
0.88
0.89
0.9
0.9
0.87
0.88
0.88
0.88
0.87
0.87
0.86
0.86
0.87
0.85
0.87
0.89
0.92
0.91
0.88
0.9
0.9
0.93
0.9
0.87
0.87
0.88
0.88
0.85
0.88
0.9
0.9
0.9
0.87
0.9
0.91
0.91
0.89
0.87
0.88
0.89
0.88
0.87
0.88
0.9
0.91
0.9
0.88
0.89
0.88
0.87
0.86
0.89
0.91
0.9
0.9
0.93
0.93
0.93
0.89
0.91
0.93
0.92
0.91
0.9
0.92
0.92
0.91
0.89
0.87
0.89
0.9
0.92
0.91
0.89
0.91
0.92
0.92
0.9
0.9
0.91
0.91
0.9
0.88
0.88
0.88
0.87
0.86
0.88
0.89
0.87
0.85
0.86
0.86
0.85
0.87
0.89
0.89
0.89
0.87
0.88
0.88
0.87
0.85
0.87
0.87
0.86
0.85
0.84
0.88
0.9
0.91
0.9
0.9
0.92
0.93
0.91
0.89
0.92
0.92
0.95
0.9
0.89
0.9
0.91
0.91
0.9
0.91
0.92
0.93
0.91
0.92
0.92
0.91
0.9
0.88
0.89
0.89
0.88
0.86
0.88
0.89
0.91
0.9
0.88
0.9
0.91
0.91
0.89
0.89
0.9
0.91
0.9
0.87
0.88
0.91
0.91
0.9
0.88
0.91
0.91
0.92
0.9
0.89
0.9
0.91
0.89
0.87
0.89
0.89
0.91
0.9
0.89
0.88
0.87
0.86
0.88
0.9
0.91
0.87
0.87
0.89
0.9
0.87
0.87
0.89
0.9
0.9
0.88
0.87
0.88
0.89
0.88
0.87
0.86
0.87
0.87
0.88
0.87
0.88
0.9
0.9
0.89
0.86
0.89
0.89
0.9
0.87
0.87
0.87
0.89
0.91
0.9
0.89
0.91
0.92
0.9
0.87
0.89
0.89
0.9
0.89
0.87
0.9
0.9
0.89
0.88
0.88
0.87
0.85
0.84
0.83
0.83
0.84
0.85
0.89
0.9
0.92
0.9
0.9
0.9
0.9
0.89
0.88
0.89
0.9
0.91
0.88
0.88
0.89
0.9
0.87
0.88
0.88
0.9
0.89
0.87
0.89
0.89
0.89
0.89
0.87
0.89
0.89
0.88
0.87
0.87
0.88
0.89
0.88
0.88
0.88
0.89
0.87
0.88
0.89
0.9
0.88
0.88
0.9
0.91
0.9
0.89
0.88
0.87
0.88
0.88
0.86
0.91
0.93
0.94
0.9
0.94
0.92
0.91
0.9
0.9
0.9
0.92
0.92
0.89
0.91
0.92
0.88
0.88
0.87
0.87
0.89
0.91
0.93
0.91
0.94
0.96
0.93
0.88
0.88
0.9
0.9
0.88
0.9
0.92
0.92
0.92
0.89
0.9
0.9
0.9
0.91
0.89
0.91
0.91
0.93
0.93
0.88
0.9
0.9
0.9
0.89
0.89
0.88
0.85
0.86
0.86
0.88
0.87
0.85
0.88
0.89
0.9
0.88
0.89
0.89
0.91
0.9
0.87
0.89
0.89
0.91
0.88
0.89
0.89
0.89
0.9
0.87
0.88
0.88
0.9
0.87
0.87
0.88
0.9
0.89
0.87
0.89
0.89
0.9
0.87
0.87
0.89
0.9
0.88
0.89
0.9
0.92
0.89
0.91
0.93
0.94
0.93
0.91
0.94
0.93
0.93
0.91
0.89
0.91
0.93
0.93
0.92
0.9
0.93
0.91
0.92
0.89
0.89
0.91
0.92
0.9
0.89
0.9
0.9
0.88
0.87
0.87
0.9
0.91
0.88
0.93
0.92
0.92
0.91
0.92
0.92
0.93
0.92
0.91
0.92
0.91
0.9
0.89
0.88
0.88
0.9
0.88
0.87
0.9
0.89
0.89
0.88
0.87
0.89
0.89
0.87
0.86
0.86
0.88
0.89
0.89
0.87
0.9
0.9
0.9
0.89
0.88
0.89
0.89
0.87
0.86
0.86
0.87
0.86
0.85
0.88
0.88
0.91
0.9
0.88
0.89
0.89
0.88
0.87
0.87
0.88
0.87
0.88
0.86
0.86
0.87
0.88
0.87
0.87
0.89
0.9
0.89
0.86
0.88
0.88
0.87
0.88
0.85
0.87
0.87
0.9
0.87
0.87
0.88
0.88
0.89
0.85
0.88
0.88
0.9
0.88
0.89
0.9
0.91
0.91
0.87
0.89
0.9
0.91
0.88
0.88
0.9
0.91
0.9
0.87
0.89
0.9
0.89
0.88
0.9
0.9
0.91
0.88
0.87
0.91
0.9
0.88
0.87
0.87
0.89
0.89
0.89
0.89
0.88
0.89
0.89
0.87
0.88
0.87
0.88
0.87
0.86
0.89
0.89
0.88
0.87
0.89
0.9
0.9
0.88
0.86
0.87
0.88
0.87
0.86
0.88
0.91
0.9
0.88
0.9
0.9
0.9
0.87
0.86
0.87
0.88
0.92
0.91
0.89
0.91
0.92
0.95
0.94
0.89
0.88
0.88
0.88
0.86
0.85
0.88
0.89
0.87
0.86
0.89
0.89
0.9
0.89
0.87
0.9
0.9
0.88
0.86
0.87
0.88
0.87
0.86
0.85
0.87
0.89
0.91
0.89
0.88
0.88
0.9
0.87
0.85
0.87
0.88
0.9
0.87
0.88
0.9
0.91
0.9
0.89
0.9
0.91
0.89
0.89
0.86
0.84
0.86
0.86
0.86
0.86
0.88
0.89
0.88
0.86
0.86
0.86
0.86
0.87
0.85
0.86
0.88
0.89
0.9
0.88
0.89
0.91
0.92
0.93
0.89
0.9
0.91
0.91
0.88
0.89
0.88
0.89
0.88
0.87
0.88
0.9
0.9
0.87
0.87
0.86
0.87
0.85
0.84
0.84
0.85
0.87
0.85
0.87
0.87
0.87
0.86
0.86
0.87
0.89
0.88
0.86
0.88
0.89
0.89
0.89
0.9
0.92
0.92
0.89
0.91
0.9
0.91
0.89
0.89
0.9
0.91
0.92
0.88
0.89
0.89
0.9
0.91
0.88
0.88
0.9
0.9
0.91
0.86
0.87
0.87
0.87
0.85
0.85
0.86
0.88
0.87
0.87
0.88
0.89
0.88
0.87
0.88
0.88
0.91
0.87
0.89
0.88
0.91
0.87
0.9
0.9
0.9
0.87
0.88
0.89
0.91
0.89
0.9
0.91
0.92
0.91
0.89
0.86
0.88
0.89
0.88
0.86
0.87
0.86
0.86
0.86
0.87
0.86
0.88
0.89
0.86
0.88
0.89
0.84
0.82
0.81
0.81
0.8
0.82
0.86
0.9
0.91
0.89
0.9
0.91
0.94
0.91
0.92
0.93
0.92
0.9
0.9
0.89
0.9
0.91
0.9
0.89
0.89
0.89
0.9
0.88
0.89
0.91
0.91
0.92
0.87
0.87
0.88
0.88
0.88
0.88
0.89
0.91
0.92
0.88
0.84
0.84
0.85
0.87
0.88
0.87
0.88
0.9
0.92
0.91
0.88
0.9
0.89
0.91
0.9
0.88
0.89
0.89
0.89
0.88
0.87
0.89
0.9
0.91
0.89
0.9
0.9
0.92
0.89
0.88
0.9
0.9
0.89
0.87
0.87
0.88
0.87
0.89
0.89
0.86
0.88
0.87
0.88
0.88
0.86
0.87
0.89
0.9
0.9
0.89
0.86
0.88
0.88
0.88
0.87
0.86
0.89
0.92
0.93
0.91
0.92
0.92
0.94
0.89
0.86
0.88
0.88
0.89
0.89
0.87
0.89
0.93
0.92
0.9
0.91
0.9
0.91
0.92
0.89
0.88
0.89
0.9
0.88
0.87
0.88
0.87
0.87
0.87
0.86
0.88
0.89
0.89
0.87
0.88
0.89
0.88
0.87
0.87
0.88
0.87
0.87
0.84
0.86
0.86
0.86
0.87
0.85
0.89
0.89
0.88
0.88
0.86
0.88
0.89
0.89
0.88
0.88
0.88
0.9
0.91
0.89
0.88
0.92
0.91
0.92
0.89
0.89
0.9
0.89
0.88
0.87
0.89
0.89
0.89
0.88
0.88
0.9
0.91
0.9
0.88
0.9
0.9
0.89
0.88
0.89
0.9
0.91
0.89
0.9
0.9
0.9
0.88
0.88
0.87
0.87
0.87
0.86
0.87
0.89
0.93
0.93
0.93
0.93
0.95
0.93
0.94
0.94
0.92
0.94
0.94
0.94
0.93
0.93
0.93
0.93
0.92
0.92
0.95
0.92
0.92
0.93
0.94
0.92
0.9
0.92
0.92
0.91
0.89
0.9
0.9
0.91
0.91
0.89
0.91
0.91
0.89
0.88
0.89
0.9
0.9
0.9
0.91
0.9
0.92
0.87
0.87
0.87
0.87
0.87
0.86
0.86
0.89
0.88
0.88
0.87
0.86
0.85
0.85
0.85
0.85
0.85
0.87
0.88
0.89
0.86
0.87
0.87
0.86
0.86
0.83
0.83
0.85
0.86
0.87
0.88
0.88
0.9
0.9
0.89
0.88
0.9
0.9
0.9
0.87
0.89
0.9
0.9
0.89
0.93
0.93
0.91
0.91
0.94
0.95
0.93
0.94
0.94
0.92
0.89
0.89
0.91
0.9
0.9
0.87
0.91
0.92
0.91
0.91
0.93
0.93
0.93
0.9
0.92
0.91
0.9
0.9
0.92
0.93
0.91
0.93
0.95
0.93
0.92
0.93
0.94
0.92
0.91
0.91
0.93
0.91
0.9
0.91
0.91
0.91
0.89
0.89
0.89
0.9
0.87
0.87
0.88
0.88
0.88
0.86
0.87
0.88
0.89
0.89
0.88
0.91
0.94
0.93
0.91
0.9
0.91
0.9
0.89
0.88
0.89
0.93
0.92
0.91
0.94
0.94
0.93
0.91
0.92
0.91
0.91
0.9
0.91
0.9
0.89
0.9
0.91
0.91
0.9
0.92
0.92
0.91
0.89
0.9
0.9
0.9
0.88
0.88
0.9
0.89
0.89
0.87
0.88
0.89
0.89
0.88
0.88
0.88
0.89
0.87
0.87
0.88
0.88
0.87
0.87
0.88
0.89
0.87
0.88
0.89
0.89
0.88
0.87
0.88
0.88
0.87
0.86
0.88
0.88
0.89
0.88
0.89
0.88
0.89
0.88
0.86
0.85
0.87
0.88
0.86
0.87
0.9
0.91
0.89
0.89
0.89
0.9
0.87
0.87
0.87
0.87
0.85
0.86
0.86
0.88
0.88
0.87
0.9
0.92
0.9
0.88
0.9
0.91
0.89
0.88
0.88
0.87
0.86
0.88
0.87
0.87
0.89
0.89
0.89
0.89
0.9
0.91
0.89
0.91
0.9
0.89
0.89
0.88
0.86
0.86
0.86
0.85
0.84
0.84
0.84
0.85
0.87
0.9
0.88
0.88
0.89
0.9
0.88
0.88
0.89
0.9
0.89
0.89
0.89
0.89
0.86
0.87
0.88
0.88
0.86
0.85
0.86
0.87
0.87
0.87
0.86
0.88
0.88
0.86
0.86
0.87
0.87
0.86
0.88
0.88
0.9
0.89
0.92
0.88
0.89
0.88
0.88
0.89
0.92
0.91
0.93
0.96
0.96
0.93
0.93
0.93
0.91
0.9
0.89
0.9
0.9
0.88
0.9
0.92
0.94
0.91
0.94
0.94
0.91
0.89
0.9
0.89
0.88
0.87
0.89
0.89
0.87
0.89
0.89
0.89
0.87
0.88
0.86
0.87
0.85
0.88
0.87
0.88
0.87
0.85
0.85
0.86
0.85
0.85
0.88
0.87
0.87
0.85
0.86
0.85
0.84
0.84
0.84
0.84
0.84
0.85
0.85
0.89
0.89
0.89
0.88
0.9
0.89
0.88
0.87
0.88
0.87
0.87
0.86
0.89
0.89
0.91
0.93
0.94
0.94
0.91
0.9
0.91
0.9
0.89
0.91
0.89
0.89
0.9
0.93
0.91
0.95
0.97
0.94
0.95
0.94
0.94
0.95
0.93
0.94
0.97
0.95
0.94
0.95
0.94
0.94
0.95
0.94
0.94
0.95
0.95
0.93
0.96
0.96
0.93
0.96
0.98
0.97
0.92
0.92
0.9
0.89
0.88
0.88
0.89
0.88
0.91
0.92
0.92
0.92
0.92
0.9
0.9
0.89
0.88
0.89
0.9
0.89
0.91
0.91
0.91
0.9
0.91
0.91
0.88
0.9
0.9
0.88
0.87
0.86
0.84
0.86
0.84
0.88
0.88
0.9
0.87
0.84
0.85
0.84
0.85
0.83
0.83
0.83
0.84
0.83
0.84
0.84
0.85
0.87
0.87
0.87
0.88
0.88
0.87
0.85
0.86
0.83
0.81
0.78
0.76
0.77
0.81
0.97
0.95
0.95
0.96
1.01
1.01
0.99
0.94
0.94
0.93
0.93
0.91
0.88
0.9
0.88
0.88
0.88
0.85
0.87
0.87
0.87
0.86
0.85
0.87
0.89
0.91
0.91
0.9
0.91
0.9
0.89
0.91
0.91
0.94
0.95
0.96
0.94
0.94
0.95
0.96
0.95
0.96
0.95
0.92
0.96
0.97
0.95
0.92
0.98
1
0.96
0.98
0.97
0.93
0.97
0.96
0.94
0.96
0.98
0.94
0.92
0.94
0.94
0.94
0.91
0.97
0.96
0.97
0.91
0.93
0.92
0.93
0.9
0.91
0.92
0.93
0.92
0.9
0.9
0.91
0.92
0.92
0.92
0.94
0.94
0.93
0.95
0.95
0.93
0.92
0.94
0.94
0.94
0.92
0.93
0.92
0.9
0.91
0.91
0.92
0.93
0.93
0.9
0.94
0.92
0.91
0.92
0.94
0.95
0.91
0.93
0.95
0.95
0.93
0.96
0.94
0.92
0.93
0.93
0.93
0.91
0.91
0.92
0.92
0.91
0.92
0.92
0.91
0.89
0.91
0.91
0.89
0.91
0.91
0.9
0.88
0.9
0.89
0.87
0.88
0.89
0.9
0.9
0.89
0.91
0.92
0.92
0.91
0.91
0.9
0.89
0.89
0.9
0.89
0.88
0.89
0.89
0.91
0.9
0.91
0.92
0.94
0.92
0.9
0.91
0.91
0.89
0.89
0.91
0.92
0.92
0.92
0.93
0.93
0.91
0.88
0.89
0.9
0.91
0.91
0.92
0.92
0.9
0.88
0.87
0.86
0.89
0.92
0.95
0.95
1.01
0.98
1.01
1.01
0.96
0.99
0.96
0.93
0.94
0.93
0.92
0.95
0.94
0.91
0.95
0.94
0.93
0.94
0.93
0.92
0.94
0.91
0.94
0.94
0.91
0.92
0.91
0.9
0.91
0.92
0.91
0.94
0.92
0.92
0.9
0.9
0.91
0.89
0.9
0.91
0.9
0.89
0.92
0.92
0.92
0.92
0.92
0.9
0.91
0.89
0.88
0.88
0.88
0.86
0.88
0.89
0.89
0.88
0.89
0.89
0.87
0.86
0.87
0.85
0.86
0.85
0.85
0.85
0.83
0.83
0.83
0.82
0.8
0.79
0.78
0.77
0.76
0.75
0.76
0.77
0.76
0.76
0.75
0.75
0.76
0.77
0.78
0.8
0.81
0.82
0.84
0.83
0.82
0.84
0.84
0.87
0.89
0.88
0.87
0.9
0.9
0.9
0.91
0.9
0.92
0.92
0.91
0.9
0.91
0.91
0.92
0.9
0.89
0.9
0.9
0.9
0.89
0.87
0.86
0.85
0.85
0.84
0.83
0.85
0.88
0.88
0.88
0.86
0.88
0.87
0.85
0.85
0.83
0.85
0.86
0.87
0.86
0.86
0.86
0.86
0.87
0.87
0.85
0.86
0.87
0.9
0.91
0.91
0.91
0.92
0.92
0.93
0.9
0.91
0.91
0.91
0.89
0.92
0.91
0.92
0.9
0.92
0.91
0.91
0.93
0.92
0.95
0.92
0.92
0.94
0.91
0.91
0.92
0.92
0.9
0.89
0.91
0.94
0.91
0.9
0.91
0.91
0.9
0.89
0.89
0.91
0.89
0.91
0.91
0.92
0.9
0.92
0.92
0.91
0.93
0.93
0.95
0.94
0.94
0.95
0.95
0.92
0.93
0.95
0.94
0.93
0.96
0.94
0.93
0.94
0.95
0.9
0.89
0.89
0.88
0.86
0.87
0.88
0.88
0.89
0.91
0.94
0.93
0.92
0.95
0.94
0.94
0.95
0.94
0.92
0.94
0.92
0.91
0.94
0.95
0.93
0.95
0.95
0.93
0.91
0.93
0.94
0.92
0.9
0.94
0.96
0.92
0.9
0.93
0.93
0.91
0.88
0.89
0.88
0.86
0.85
0.86
0.88
0.89
0.88
0.9
0.9
0.88
0.88
0.88
0.88
0.87
0.86
0.86
0.86
0.85
0.85
0.86
0.88
0.91
0.89
0.9
0.91
0.91
0.88
0.9
0.89
0.88
0.87
0.88
0.88
0.86
0.87
0.87
0.88
0.87
0.89
0.89
0.87
0.88
0.88
0.86
0.86
0.87
0.86
0.84
0.86
0.86
0.85
0.87
0.88
0.88
0.87
0.91
0.9
0.91
0.91
0.9
0.9
0.88
0.88
0.88
0.87
0.86
0.86
0.85
0.84
0.83
0.8
0.78
0.78
0.79
0.76
0.81
0.77
0.76
0.76
0.76
0.75
0.74
0.74
0.74
0.73
0.73
0.72
0.71
0.7
0.7
0.7
0.69
0.68
0.68
0.68
0.67
0.67
0.68
0.68
0.69
0.71
0.77
0.82
0.84
0.83
0.89
0.93
0.95
0.94
0.95
0.95
0.93
0.89
0.88
0.92
0.93
0.94
0.91
0.9
0.92
0.96
0.97
0.97
0.91
0.89
0.91
0.92
0.94
0.92
0.94
0.91
0.88
0.91
0.91
0.91
0.92
0.89
0.87
0.88
0.88
0.88
0.87
0.86
0.87
0.88
0.89
0.88
0.86
0.87
0.88
0.87
0.86
0.86
0.88
0.89
0.89
0.88
0.85
0.88
0.87
0.88
0.87
0.85
0.84
0.86
0.86
0.85
0.86
0.85
0.82
0.83
0.83
0.86
0.85
0.83
0.85
0.84
0.85
0.85
0.84
0.83
0.83
0.82
0.82
0.81
0.82
0.83
0.85
0.88
0.86
0.85
0.88
0.88
0.88
0.87
0.87
0.83
0.83
0.82
0.83
0.84
0.83
0.84
0.85
0.87
0.88
0.88
0.87
0.87
0.87
0.86
0.83
0.84
0.82
0.82
0.83
0.82
0.83
0.83
0.83
0.84
0.84
0.82
0.82
0.81
0.82
0.82
0.81
0.79
0.77
0.77
0.75
0.76
0.76
0.79
0.84
0.86
0.85
0.86
0.89
0.89
0.9
0.9
0.89
0.87
0.86
0.88
0.87
0.86
0.86
0.89
0.89
0.88
0.87
0.85
0.84
0.86
0.86
0.88
0.85
0.85
0.88
0.9
0.91
0.88
0.85
0.86
0.87
0.87
0.85
0.86
0.86
0.88
0.86
0.85
0.85
0.87
0.86
0.88
0.87
0.85
0.85
0.85
0.85
0.85
0.86
0.83
0.84
0.84
0.85
0.86
0.84
0.86
0.84
0.87
0.86
0.84
0.87
0.84
0.85
0.84
0.83
0.83
0.83
0.85
0.86
0.84
0.84
0.85
0.84
0.86
0.85
0.83
0.83
0.82
0.83
0.82
0.81
0.82
0.82
0.84
0.84
0.84
0.83
0.85
0.88
0.87
0.87
0.85
0.85
0.86
0.88
0.87
0.86
0.85
0.85
0.85
0.85
0.85
0.84
0.84
0.85
0.85
0.87
0.84
0.83
0.82
0.83
0.83
0.87
0.85
0.86
0.9
0.92
0.9
0.9
0.87
0.88
0.87
0.87
0.87
0.85
0.85
0.85
0.86
0.88
0.91
0.88
0.88
0.87
0.88
0.86
0.85
0.86
0.87
0.88
0.87
0.85
0.86
0.85
0.86
0.84
0.84
0.83
0.86
0.87
0.88
0.85
0.84
0.84
0.86
0.85
0.85
0.83
0.84
0.84
0.86
0.85
0.84
0.82
0.82
0.82
0.82
0.84
0.82
0.82
0.83
0.83
0.85
0.84
0.85
0.84
0.83
0.82
0.82
0.82
0.85
0.88
0.86
0.84
0.88
0.87
0.88
0.87
0.85
0.85
0.87
0.87
0.88
0.87
0.86
0.88
0.88
0.87
0.85
0.85
0.86
0.87
0.88
0.87
0.84
0.85
0.86
0.85
0.84
0.87
0.86
0.87
0.85
0.85
0.85
0.86
0.85
0.84
0.83
0.85
0.85
0.85
0.82
0.83
0.81
0.8
0.79
0.79
0.79
0.8
0.81
0.79
0.8
0.81
0.81
0.83
0.83
0.81
0.84
0.85
0.86
0.86
0.85
0.86
0.86
0.88
0.86
0.87
0.87
0.88
0.86
0.87
0.87
0.86
0.86
0.85
0.85
0.86
0.85
0.87
0.86
0.85
0.86
0.88
0.88
0.87
0.83
0.85
0.84
0.85
0.85
0.83
0.85
0.86
0.86
0.85
0.83
0.85
0.87
0.87
0.86
0.85
0.88
0.88
0.87
0.89
0.87
0.85
0.85
0.86
0.88
0.89
0.86
0.88
0.89
0.9
0.9
0.87
0.87
0.88
0.88
0.87
0.86
0.84
0.85
0.86
0.85
0.84
0.83
0.85
0.86
0.87
0.86
0.86
0.86
0.86
0.85
0.85
0.84
0.86
0.89
0.88
0.87
0.89
0.91
0.9
0.86
0.85
0.83
0.85
0.87
0.9
0.92
0.89
0.88
0.87
0.88
0.86
0.85
0.9
0.92
0.93
0.91
0.9
0.92
0.92
0.92
0.9
0.91
0.9
0.9
0.86
0.87
0.87
0.86
0.86
0.86
0.87
0.89
0.9
0.89
0.88
0.85
0.86
0.86
0.87
0.89
0.86
0.89
0.91
0.93
0.92
0.89
0.9
0.89
0.91
0.91
0.88
0.88
0.9
0.91
0.92
0.9
0.87
0.87
0.87
0.89
0.9
0.9
0.86
0.88
0.9
0.9
0.89
0.86
0.87
0.87
0.89
0.87
0.86
0.87
0.87
0.88
0.88
0.85
0.87
0.86
0.86
0.84
0.83
0.85
0.86
0.86
0.87
0.84
0.86
0.86
0.86
0.89
0.9
0.89
0.88
0.87
0.87
0.87
0.87
0.85
0.84
0.84
0.86
0.88
0.89
0.9
0.87
0.87
0.88
0.88
0.87
0.86
0.85
0.86
0.86
0.86
0.84
0.86
0.84
0.84
0.84
0.83
0.83
0.87
0.9
0.92
0.89
0.89
0.92
0.92
0.93
0.89
0.88
0.88
0.89
0.89
0.85
0.85
0.85
0.85
0.85
0.84
0.85
0.84
0.81
0.78
0.77
0.78
0.78
0.83
0.84
0.83
0.86
0.9
0.92
0.91
0.93
0.93
0.95
0.91
0.91
0.92
0.91
0.9
0.87
0.89
0.88
0.88
0.87
0.86
0.86
0.88
0.9
0.88
0.89
0.89
0.9
0.88
0.86
0.9
0.92
0.9
0.88
0.9
0.9
0.9
0.87
0.88
0.88
0.9
0.9
0.88
0.87
0.88
0.89
0.87
0.85
0.88
0.89
0.9
0.88
0.87
0.89
0.9
0.92
0.88
0.88
0.9
0.92
0.94
0.93
0.88
0.91
0.92
0.91
0.91
0.88
0.87
0.89
0.88
0.87
0.88
0.87
0.84
0.84
0.88
0.93
0.97
0.92
0.9
0.94
0.95
0.94
0.9
0.91
0.91
0.91
0.9
0.89
0.85
0.85
0.86
0.86
0.85
0.88
0.88
0.91
0.88
0.89
0.89
0.9
0.89
0.87
0.88
0.88
0.9
0.89
0.87
0.89
0.89
0.87
0.87
0.85
0.85
0.87
0.87
0.89
0.87
0.87
0.88
0.88
0.93
0.91
0.86
0.87
0.88
0.9
0.91
0.9
0.88
0.89
0.91
0.91
0.89
0.89
0.91
0.91
0.9
0.88
0.87
0.89
0.89
0.89
0.86
0.84
0.85
0.87
0.88
0.87
0.87
0.9
0.93
0.93
0.91
0.91
0.92
0.93
0.94
0.9
0.87
0.88
0.89
0.9
0.88
0.88
0.88
0.89
0.87
0.85
0.88
0.89
0.9
0.89
0.86
0.9
0.89
0.91
0.88
0.88
0.89
0.91
0.93
0.9
0.87
0.89
0.9
0.88
0.86
0.85
0.86
0.88
0.87
0.85
0.85
0.85
0.87
0.87
0.86
0.84
0.87
0.88
0.89
0.87
0.88
0.87
0.89
0.88
0.86
0.87
0.88
0.88
0.86
0.86
0.87
0.87
0.86
0.84
0.83
0.83
0.85
0.88
0.85
0.86
0.86
0.89
0.87
0.87
0.9
0.92
0.91
0.89
0.87
0.88
0.89
0.9
0.88
0.88
0.89
0.91
0.9
0.88
0.92
0.91
0.9
0.89
0.86
0.87
0.87
0.89
0.87
0.84
0.87
0.87
0.88
0.86
0.87
0.88
0.9
0.9
0.89
0.88
0.89
0.89
0.89
0.86
0.89
0.88
0.9
0.89
0.87
0.89
0.88
0.88
0.86
0.88
0.89
0.89
0.86
0.88
0.89
0.89
0.88
0.87
0.88
0.89
0.88
0.87
0.87
0.86
0.88
0.87
0.87
0.9
0.94
0.94
0.93
0.89
0.92
0.91
0.92
0.9
0.87
0.89
0.89
0.89
0.89
0.87
0.88
0.9
0.91
0.89
0.88
0.89
0.89
0.88
0.87
0.87
0.88
0.88
0.87
0.89
0.9
0.91
0.89
0.87
0.89
0.88
0.89
0.88
0.91
0.92
0.93
0.91
0.89
0.89
0.9
0.9
0.87
0.88
0.88
0.89
0.89
0.88
0.87
0.88
0.88
0.88
0.87
0.84
0.86
0.87
0.88
0.87
0.88
0.9
0.9
0.89
0.88
0.89
0.91
0.9
0.87
0.85
0.85
0.85
0.86
0.84
0.86
0.87
0.87
0.86
0.85
0.85
0.87
0.87
0.86
0.86
0.88
0.9
0.89
0.88
0.86
0.88
0.89
0.89
0.87
0.87
0.89
0.9
0.9
0.88
0.86
0.89
0.89
0.9
0.88
0.88
0.87
0.89
0.9
0.87
0.87
0.9
0.89
0.88
0.86
0.83
0.86
0.87
0.9
0.9
0.88
0.89
0.89
0.91
0.9
0.88
0.9
0.9
0.91
0.89
0.86
0.88
0.89
0.91
0.89
0.87
0.89
0.9
0.91
0.9
0.88
0.88
0.89
0.9
0.9
0.89
0.9
0.91
0.91
0.88
0.9
0.88
0.91
0.88
0.88
0.88
0.91
0.92
0.88
0.87
0.86
0.87
0.88
0.85
0.84
0.86
0.88
0.89
0.86
0.86
0.86
0.86
0.88
0.86
0.87
0.88
0.89
0.9
0.88
0.88
0.88
0.9
0.88
0.88
0.86
0.86
0.87
0.87
0.86
0.86
0.85
0.85
0.87
0.85
0.87
0.88
0.9
0.9
0.88
0.88
0.88
0.87
0.87
0.85
0.88
0.9
0.89
0.89
0.86
0.89
0.89
0.9
0.9
0.87
0.89
0.89
0.9
0.9
0.88
0.89
0.88
0.89
0.88
0.86
0.88
0.89
0.89
0.88
0.86
0.86
0.88
0.89
0.87
0.85
0.87
0.87
0.88
0.85
0.86
0.86
0.85
0.83
0.83
0.84
0.84
0.86
0.83
0.85
0.87
0.88
0.89
0.86
0.89
0.88
0.89
0.86
0.84
0.84
0.85
0.87
0.86
0.85
0.87
0.87
0.91
0.88
0.87
0.89
0.9
0.89
0.87
0.86
0.86
0.87
0.87
0.85
0.86
0.87
0.89
0.89
0.86
0.88
0.89
0.89
0.88
0.85
0.87
0.86
0.87
0.86
0.85
0.87
0.87
0.87
0.85
0.85
0.85
0.86
0.86
0.85
0.84
0.86
0.87
0.87
0.85
0.85
0.86
0.87
0.87
0.86
0.88
0.88
0.9
0.88
0.85
0.86
0.87
0.88
0.86
0.85
0.88
0.88
0.87
0.86
0.87
0.87
0.87
0.85
0.84
0.86
0.88
0.88
0.87
0.86
0.87
0.86
0.87
0.85
0.84
0.85
0.86
0.87
0.85
0.86
0.86
0.88
0.88
0.86
0.87
0.87
0.9
0.87
0.87
0.87
0.89
0.9
0.87
0.88
0.89
0.89
0.89
0.86
0.88
0.89
0.89
0.89
0.87
0.86
0.86
0.86
0.87
0.85
0.85
0.85
0.85
0.84
0.83
0.83
0.84
0.86
0.88
0.85
0.86
0.88
0.88
0.9
0.86
0.87
0.88
0.88
0.89
0.85
0.87
0.88
0.88
0.89
0.86
0.84
0.86
0.88
0.88
0.86
0.87
0.88
0.9
0.88
0.86
0.88
0.9
0.9
0.88
0.87
0.9
0.92
0.91
0.9
0.88
0.91
0.92
0.92
0.9
0.88
0.88
0.86
0.85
0.83
0.85
0.87
0.89
0.87
0.87
0.87
0.88
0.88
0.86
0.88
0.87
0.89
0.87
0.86
0.87
0.88
0.88
0.87
0.87
0.87
0.88
0.85
0.85
0.87
0.88
0.87
0.85
0.85
0.86
0.87
0.86
0.83
0.85
0.86
0.87
0.86
0.88
0.88
0.88
0.87
0.87
0.88
0.89
0.89
0.86
0.85
0.86
0.87
0.88
0.87
0.87
0.89
0.89
0.89
0.87
0.87
0.88
0.87
0.88
0.87
0.87
0.88
0.88
0.88
0.85
0.86
0.86
0.86
0.86
0.85
0.84
0.85
0.85
0.87
0.85
0.83
0.83
0.83
0.84
0.83
0.85
0.88
0.91
0.91
0.9
0.89
0.91
0.91
0.9
0.88
0.87
0.88
0.87
0.87
0.86
0.85
0.87
0.87
0.88
0.87
0.87
0.89
0.89
0.89
0.86
0.87
0.88
0.91
0.86
0.85
0.85
0.88
0.89
0.88
0.87
0.89
0.9
0.91
0.9
0.9
0.89
0.91
0.9
0.87
0.87
0.89
0.89
0.87
0.85
0.85
0.86
0.85
0.85
0.84
0.85
0.86
0.84
0.85
0.86
0.88
0.86
0.86
0.86
0.87
0.86
0.84
0.85
0.86
0.88
0.86
0.86
0.87
0.89
0.88
0.86
0.89
0.88
0.89
0.88
0.86
0.88
0.88
0.89
0.88
0.85
0.87
0.87
0.89
0.88
0.85
0.87
0.88
0.88
0.86
0.86
0.88
0.89
0.89
0.88
0.87
0.88
0.87
0.87
0.86
0.87
0.88
0.86
0.85
0.86
0.88
0.86
0.9
0.9
0.87
0.87
0.88
0.9
0.89
0.86
0.87
0.88
0.88
0.88
0.85
0.85
0.86
0.88
0.88
0.86
0.84
0.85
0.86
0.87
0.86
0.86
0.89
0.9
0.9
0.87
0.87
0.89
0.89
0.88
0.86
0.87
0.87
0.88
0.87
0.85
0.86
0.87
0.87
0.87
0.84
0.85
0.86
0.87
0.85
0.87
0.88
0.89
0.88
0.86
0.88
0.88
0.87
0.86
0.84
0.84
0.85
0.86
0.88
0.86
0.86
0.88
0.89
0.89
0.88
0.87
0.87
0.88
0.88
0.85
0.87
0.88
0.87
0.86
0.87
0.86
0.88
0.88
0.86
0.86
0.86
0.88
0.86
0.86
0.88
0.89
0.9
0.87
0.89
0.89
0.9
0.88
0.86
0.83
0.84
0.85
0.84
0.86
0.88
0.9
0.89
0.87
0.9
0.9
0.9
0.86
0.88
0.87
0.89
0.87
0.86
0.87
0.88
0.89
0.88
0.86
0.86
0.86
0.87
0.88
0.85
0.86
0.86
0.86
0.86
0.83
0.83
0.84
0.85
0.86
0.85
0.86
0.86
0.88
0.85
0.87
0.88
0.89
0.88
0.87
0.88
0.89
0.88
0.87
0.87
0.87
0.86
0.86
0.83
0.85
0.85
0.85
0.84
0.84
0.85
0.87
0.87
0.84
0.86
0.86
0.86
0.86
0.84
0.85
0.85
0.86
0.85
0.83
0.84
0.84
0.86
0.85
0.83
0.85
0.86
0.86
0.86
0.84
0.86
0.84
0.85
0.86
0.84
0.84
0.85
0.86
0.86
0.84
0.86
0.85
0.88
0.84
0.87
0.87
0.86
0.85
0.83
0.84
0.83
0.87
0.85
0.85
0.88
0.87
0.89
0.89
0.87
0.88
0.87
0.87
0.86
0.88
0.89
0.9
0.91
0.88
0.87
0.88
0.9
0.89
0.87
0.89
0.89
0.91
0.86
0.85
0.87
0.89
0.92
0.9
0.87
0.88
0.88
0.88
0.87
0.86
0.86
0.87
0.88
0.89
0.86
0.87
0.89
0.9
0.88
0.87
0.89
0.9
0.91
0.87
0.86
0.87
0.88
0.89
0.86
0.86
0.86
0.87
0.88
0.85
0.85
0.86
0.88
0.88
0.88
0.86
0.88
0.89
0.89
0.86
0.86
0.87
0.86
0.86
0.84
0.86
0.85
0.86
0.84
0.82
0.84
0.84
0.87
0.85
0.85
0.85
0.87
0.85
0.84
0.85
0.85
0.88
0.89
0.86
0.86
0.87
0.9
0.89
0.87
0.87
0.88
0.88
0.87
0.86
0.88
0.88
0.88
0.86
0.86
0.87
0.87
0.85
0.85
0.85
0.88
0.87
0.86
0.85
0.86
0.86
0.85
0.83
0.87
0.87
0.88
0.86
0.85
0.86
0.88
0.89
0.85
0.87
0.85
0.86
0.83
0.85
0.86
0.89
0.86
0.88
0.89
0.9
0.9
0.87
0.9
0.9
0.91
0.88
0.87
0.88
0.87
0.87
0.85
0.86
0.86
0.85
0.87
0.85
0.85
0.86
0.88
0.88
0.88
0.85
0.87
0.86
0.87
0.85
0.87
0.88
0.87
0.85
0.87
0.87
0.87
0.85
0.84
0.85
0.86
0.87
0.87
0.85
0.87
0.87
0.87
0.86
0.83
0.85
0.85
0.85
0.84
0.87
0.88
0.9
0.89
0.86
0.88
0.87
0.87
0.87
0.84
0.87
0.86
0.87
0.85
0.84
0.84
0.86
0.87
0.86
0.85
0.86
0.89
0.87
0.85
0.83
0.84
0.85
0.85
0.86
0.85
0.88
0.88
0.86
0.88
0.9
0.9
0.87
0.89
0.91
0.88
0.86
0.84
0.84
0.84
0.86
0.88
0.84
0.87
0.9
0.92
0.91
0.87
0.91
0.9
0.91
0.88
0.86
0.88
0.89
0.89
0.88
0.88
0.88
0.87
0.87
0.9
0.91
0.94
0.9
0.9
0.91
0.91
0.89
0.85
0.87
0.87
0.87
0.87
0.86
0.88
0.89
0.9
0.88
0.85
0.87
0.86
0.87
0.84
0.83
0.84
0.86
0.87
0.86
0.85
0.87
0.88
0.88
0.86
0.86
0.87
0.88
0.85
0.84
0.85
0.87
0.87
0.85
0.86
0.87
0.89
0.86
0.86
0.87
0.87
0.87
0.86
0.87
0.88
0.88
0.88
0.87
0.88
0.89
0.89
0.9
0.88
0.89
0.9
0.89
0.87
0.88
0.88
0.9
0.9
0.86
0.87
0.87
0.89
0.86
0.89
0.88
0.91
0.88
0.87
0.87
0.89
0.89
0.86
0.87
0.88
0.88
0.86
0.85
0.87
0.87
0.89
0.9
0.87
0.89
0.89
0.89
0.88
0.86
0.87
0.87
0.88
0.86
0.87
0.87
0.88
0.88
0.85
0.86
0.88
0.9
0.92
0.87
0.89
0.89
0.89
0.89
0.86
0.85
0.86
0.85
0.83
0.82
0.82
0.83
0.84
0.83
0.84
0.85
0.85
0.86
0.84
0.84
0.84
0.85
0.86
0.85
0.86
0.88
0.89
0.91
0.86
0.89
0.89
0.9
0.87
0.86
0.87
0.88
0.88
0.87
0.85
0.87
0.87
0.85
0.85
0.85
0.89
0.89
0.87
0.89
0.9
0.92
0.89
0.88
0.9
0.91
0.89
0.86
0.88
0.86
0.87
0.85
0.87
0.86
0.89
0.86
0.85
0.85
0.85
0.86
0.84
0.86
0.87
0.9
0.9
0.88
0.9
0.89
0.89
0.87
0.85
0.87
0.87
0.88
0.87
0.86
0.87
0.88
0.88
0.86
0.87
0.88
0.87
0.88
0.87
0.88
0.84
0.83
0.85
0.86
0.9
0.88
0.9
0.93
0.92
0.89
0.88
0.9
0.9
0.89
0.87
0.88
0.88
0.89
0.9
0.87
0.88
0.87
0.89
0.85
0.86
0.87
0.86
0.86
0.83
0.85
0.85
0.85
0.84
0.84
0.85
0.86
0.89
0.87
0.86
0.87
0.88
0.89
0.88
0.85
0.86
0.86
0.87
0.86
0.85
0.87
0.86
0.87
0.87
0.86
0.88
0.88
0.89
0.87
0.86
0.87
0.88
0.88
0.86
0.86
0.88
0.9
0.87
0.87
0.89
0.9
0.89
0.87
0.88
0.88
0.87
0.85
0.85
0.85
0.88
0.88
0.86
0.88
0.88
0.9
0.89
0.87
0.88
0.89
0.9
0.86
0.88
0.9
0.9
0.87
0.89
0.89
0.9
0.9
0.86
0.88
0.87
0.88
0.87
0.84
0.86
0.87
0.88
0.87
0.85
0.86
0.87
0.87
0.86
0.87
0.88
0.9
0.88
0.84
0.86
0.88
0.9
0.87
0.9
0.92
0.93
0.91
0.87
0.86
0.88
0.88
0.84
0.84
0.85
0.87
0.87
0.87
0.9
0.91
0.92
0.88
0.91
0.9
0.9
0.88
0.89
0.89
0.88
0.86
0.86
0.86
0.87
0.87
0.85
0.86
0.85
0.87
0.85
0.84
0.84
0.83
0.84
0.83
0.83
0.84
0.86
0.86
0.84
0.84
0.85
0.86
0.87
0.83
0.85
0.84
0.85
0.85
0.85
0.86
0.84
0.85
0.83
0.83
0.84
0.9
0.92
0.88
0.91
0.93
0.93
0.91
0.89
0.91
0.9
0.89
0.87
0.88
0.89
0.89
0.86
0.85
0.87
0.85
0.88
0.87
0.84
0.86
0.86
0.87
0.86
0.83
0.85
0.82
0.83
0.85
0.86
0.88
0.86
0.85
0.87
0.87
0.89
0.86
0.88
0.88
0.89
0.89
0.86
0.88
0.89
0.89
0.89
0.88
0.88
0.89
0.89
0.85
0.87
0.9
0.91
0.9
0.88
0.89
0.87
0.87
0.86
0.84
0.86
0.85
0.86
0.86
0.84
0.82
0.82
0.85
0.87
0.88
0.87
0.91
0.95
0.93
0.91
0.9
0.92
0.92
0.92
0.88
0.9
0.91
0.89
0.9
0.86
0.9
0.89
0.91
0.87
0.88
0.87
0.88
0.88
0.85
0.87
0.88
0.89
0.9
0.87
0.84
0.86
0.87
0.88
0.88
0.86
0.91
0.93
0.94
0.91
0.91
0.91
0.9
0.88
0.85
0.87
0.86
0.87
0.85
0.85
0.86
0.87
0.86
0.85
0.86
0.86
0.87
0.85
0.85
0.86
0.88
0.88
0.86
0.88
0.88
0.89
0.85
0.87
0.88
0.89
0.88
0.87
0.87
0.88
0.89
0.88
0.86
0.87
0.88
0.89
0.87
0.87
0.87
0.89
0.88
0.86
0.87
0.87
0.88
0.88
0.86
0.88
0.88
0.88
0.87
0.85
0.85
0.86
0.89
0.87
0.86
0.89
0.9
0.91
0.92
0.87
0.89
0.9
0.88
0.86
0.88
0.91
0.91
0.88
0.88
0.9
0.9
0.9
0.9
0.91
0.91
0.89
0.89
0.89
0.92
0.9
0.87
0.89
0.89
0.91
0.88
0.85
0.87
0.87
0.89
0.86
0.88
0.89
0.91
0.89
0.91
0.92
0.92
0.88
0.91
0.9
0.89
0.87
0.86
0.86
0.87
0.86
0.86
0.89
0.91
0.92
0.88
0.9
0.9
0.92
0.89
0.9
0.89
0.92
0.88
0.89
0.88
0.89
0.88
0.87
0.87
0.88
0.89
0.88
0.86
0.87
0.87
0.88
0.86
0.88
0.87
0.9
0.88
0.87
0.89
0.9
0.87
0.87
0.87
0.88
0.87
0.88
0.87
0.88
0.86
0.87
0.87
0.88
0.88
0.86
0.87
0.87
0.89
0.86
0.85
0.86
0.86
0.87
0.86
0.86
0.88
0.9
0.87
0.87
0.89
0.91
0.89
0.87
0.89
0.87
0.89
0.89
0.88
0.89
0.9
0.89
0.88
0.92
0.89
0.89
0.87
0.86
0.87
0.88
0.86
0.87
0.89
0.9
0.88
0.87
0.89
0.9
0.91
0.88
0.89
0.87
0.88
0.86
0.85
0.88
0.89
0.89
0.87
0.86
0.86
0.88
0.88
0.87
0.87
0.86
0.86
0.88
0.85
0.86
0.87
0.88
0.87
0.87
0.88
0.87
0.89
0.87
0.84
0.86
0.84
0.86
0.83
0.86
0.85
0.89
0.86
0.85
0.87
0.87
0.87
0.85
0.86
0.86
0.87
0.85
0.86
0.86
0.88
0.86
0.85
0.87
0.88
0.86
0.89
0.92
0.93
0.9
0.91
0.9
0.91
0.9
0.86
0.89
0.9
0.89
0.87
0.87
0.88
0.88
0.85
0.87
0.87
0.88
0.86
0.85
0.86
0.86
0.88
0.84
0.86
0.87
0.88
0.86
0.84
0.85
0.85
0.86
0.84
0.85
0.87
0.89
0.87
0.86
0.87
0.9
0.89
0.86
0.86
0.87
0.87
0.87
0.85
0.86
0.88
0.87
0.89
0.86
0.88
0.9
0.9
0.88
0.92
0.91
0.9
0.87
0.9
0.9
0.9
0.88
0.88
0.88
0.88
0.86
0.84
0.85
0.86
0.89
0.84
0.85
0.87
0.88
0.87
0.84
0.86
0.86
0.87
0.87
0.85
0.86
0.87
0.88
0.86
0.86
0.86
0.88
0.89
0.88
0.89
0.89
0.91
0.9
0.86
0.88
0.88
0.88
0.87
0.88
0.89
0.9
0.9
0.86
0.88
0.89
0.91
0.89
0.87
0.9
0.91
0.89
0.89
0.88
0.89
0.85
0.84
0.84
0.86
0.89
0.87
0.88
0.9
0.91
0.93
0.9
0.89
0.9
0.91
0.9
0.88
0.85
0.87
0.86
0.88
0.86
0.86
0.87
0.88
0.89
0.87
0.88
0.9
0.89
0.9
0.86
0.88
0.89
0.87
0.85
0.85
0.84
0.87
0.87
0.84
0.86
0.86
0.86
0.84
0.85
0.86
0.87
0.86
0.83
0.85
0.84
0.85
0.84
0.83
0.83
0.84
0.86
0.85
0.86
0.87
0.89
0.91
0.86
0.89
0.89
0.89
0.86
0.88
0.89
0.89
0.87
0.88
0.86
0.87
0.88
0.86
0.87
0.87
0.91
0.89
0.87
0.89
0.91
0.89
0.86
0.87
0.88
0.89
0.88
0.87
0.88
0.89
0.92
0.88
0.88
0.89
0.89
0.89
0.87
0.87
0.85
0.86
0.83
0.85
0.83
0.83
0.87
0.88
0.86
0.89
0.94
0.98
0.91
0.94
0.92
0.93
0.89
0.89
0.89
0.9
0.9
0.86
0.87
0.87
0.88
0.86
0.86
0.89
0.89
0.89
0.86
0.83
0.83
0.84
0.85
0.83
0.85
0.86
0.89
0.88
0.87
0.88
0.9
0.89
0.87
0.88
0.88
0.87
0.85
0.85
0.85
0.87
0.85
0.88
0.88
0.87
0.85
0.85
0.86
0.88
0.89
0.86
0.88
0.89
0.89
0.86
0.88
0.88
0.9
0.87
0.87
0.87
0.87
0.89
0.86
0.87
0.89
0.89
0.89
0.89
0.91
0.92
0.9
0.87
0.89
0.89
0.89
0.88
0.89
0.9
0.9
0.88
0.88
0.88
0.88
0.88
0.86
0.86
0.88
0.88
0.88
0.87
0.85
0.86
0.87
0.86
0.86
0.85
0.86
0.88
0.87
0.91
0.94
0.93
0.91
0.95
0.96
0.93
0.9
0.92
0.91
0.91
0.87
0.89
0.89
0.92
0.87
0.87
0.89
0.89
0.91
0.87
0.89
0.89
0.88
0.87
0.88
0.87
0.86
0.84
0.85
0.85
0.86
0.86
0.85
0.87
0.89
0.87
0.87
0.88
0.89
0.89
0.87
0.88
0.89
0.89
0.89
0.86
0.88
0.86
0.88
0.85
0.83
0.85
0.87
0.82
0.82
0.82
0.85
0.89
0.87
0.87
0.9
0.92
0.89
0.87
0.92
0.9
0.92
0.88
0.89
0.88
0.88
0.88
0.86
0.87
0.87
0.88
0.87
0.85
0.87
0.88
0.87
0.86
0.85
0.87
0.87
0.87
0.85
0.85
0.85
0.86
0.87
0.86
0.85
0.87
0.86
0.87
0.85
0.87
0.86
0.87
0.86
0.87
0.86
0.89
0.87
0.86
0.87
0.87
0.89
0.86
0.86
0.85
0.87
0.86
0.85
0.87
0.86
0.87
0.88
0.86
0.86
0.88
0.9
0.89
0.87
0.86
0.87
0.85
0.87
0.87
0.89
0.88
0.87
0.87
0.88
0.87
0.85
0.87
0.88
0.88
0.86
0.89
0.88
0.88
0.86
0.88
0.88
0.91
0.88
0.89
0.89
0.89
0.9
0.88
0.87
0.88
0.89
0.89
0.88
0.88
0.9
0.92
0.92
0.88
0.9
0.91
0.9
0.88
0.86
0.88
0.88
0.89
0.88
0.87
0.88
0.89
0.87
0.88
0.86
0.9
0.87
0.86
0.9
0.9
0.92
0.91
0.89
0.92
0.93
0.91
0.89
0.9
0.9
0.9
0.87
0.87
0.87
0.88
0.89
0.86
0.88
0.9
0.91
0.87
0.87
0.87
0.88
0.87
0.85
0.86
0.87
0.85
0.84
0.87
0.87
0.88
0.9
0.86
0.87
0.88
0.88
0.86
0.87
0.86
0.88
0.85
0.86
0.87
0.9
0.89
0.87
0.89
0.88
0.9
0.88
0.89
0.88
0.87
0.85
0.85
0.86
0.9
0.93
0.89
0.91
0.93
0.93
0.9
0.91
0.91
0.91
0.88
0.88
0.89
0.89
0.89
0.87
0.88
0.89
0.91
0.9
0.87
