0.98
0.49
0.73
0.63
0.65
0.62
0.62
0.67
0.7
0.74
0.79
0.73
0.72
0.72
0.74
0.75
0.75
0.76
0.74
0.82
0.85
0.85
0.8
0.78
0.74
0.75
0.72
0.74
0.73
0.71
0.72
0.69
0.68
0.73
1.2
0.67
0.78
0.66
0.63
0.48
0.77
0.63
0.63
0.63
0.63
0.5
0.57
0.82
0.67
0.64
0.66
0.64
0.64
0.64
0.66
0.69
0.71
0.67
0.67
0.68
0.73
0.76
0.75
1.41
0.68
0.71
0.69
0.45
0.21
0.66
0.64
0.64
0.63
0.62
0.64
0.67
0.67
0.68
0.7
0.72
0.76
0.72
0.71
0.76
0.75
0.78
0.73
0.71
0.74
0.71
0.72
0.72
0.58
0.83
0.74
0.75
0.72
0.73
0.72
0.76
0.77
0.74
0.48
0.22
0.7
0.67
0.69
0.7
0.69
0.68
0.66
0.65
1.97
0.66
0.67
0.67
0.68
1.46
0.76
0.74
0.74
0.74
2.07
0.64
0.72
0.68
2.05
0.76
0.74
0.69
0.72
0.72
0.72
0.74
0.69
0.71
0.72
0.74
0.71
0.7
0.72
1.45
0.71
0.69
0.7
0.73
0.74
0.72
0.68
0.66
0.67
2.06
0.67
0.68
0.69
1.46
0.68
0.67
0.66
0.71
1.35
1.28
0.68
0.64
0.66
0.64
0.65
0.65
0.65
0.63
0.62
0.62
0.62
0.63
0.64
0.65
0.69
0.71
0.74
0.71
0.76
0.74
0.56
0.72
0.81
0.68
0.66
0.67
0.69
0.73
0.73
0.68
0.67
1.03
0.92
0.91
0.89
0.88
0.84
0.84
0.82
0.8
0.8
0.77
0.72
0.72
0.82
0.85
0.79
0.78
2.73
0.25
0.4
0.64
1.06
0.82
0.63
0.64
1.93
0.57
1.5
0.66
1.49
0.49
0.65
0.99
0.97
0.64
0.66
2.03
0.67
0.31
0.35
0.43
0.23
0.67
0.64
0.65
0.66
0.69
0.7
0.69
0.73
0.72
0.71
0.71
0.71
0.71
0.73
0.73
0.71
0.71
0.72
0.74
0.74
0.75
0.73
0.72
0.7
0.71
0.69
0.73
0.75
0.75
0.75
0.72
0.71
0.7
0.71
0.69
0.68
0.64
0.65
0.65
0.66
0.72
0.68
0.68
0.69
0.74
0.69
0.69
0.71
0.67
0.66
0.66
0.67
0.67
0.66
0.71
0.74
0.8
0.76
0.78
0.8
0.82
0.81
0.77
0.76
0.77
0.79
0.77
0.8
0.77
0.76
0.79
0.78
0.8
0.77
0.71
0.71
0.71
0.74
0.71
0.72
0.77
0.77
0.76
0.72
0.73
0.74
0.77
0.77
0.75
0.73
0.75
0.77
0.74
0.71
0.77
0.69
0.69
0.69
0.7
0.77
0.76
0.75
0.72
0.75
0.74
0.72
0.69
0.67
0.71
0.71
0.7
0.74
0.77
0.79
0.78
0.8
0.8
0.84
0.79
0.76
0.78
0.81
0.84
0.79
0.77
0.78
0.77
0.75
0.74
0.78
0.81
0.79
0.73
0.76
0.78
0.81
0.82
0.75
0.73
0.74
0.74
0.75
0.75
0.82
0.82
0.81
1.51
0.78
0.8
0.79
0.76
0.74
0.77
0.76
0.77
0.74
0.75
0.75
0.78
0.76
0.74
0.73
0.78
0.82
0.84
0.81
0.78
0.74
0.73
0.75
0.8
0.82
0.81
0.78
0.74
0.77
0.77
0.79
0.74
0.71
0.73
0.78
0.78
0.79
0.79
0.75
0.76
0.81
0.8
0.8
0.82
0.75
0.75
0.76
0.78
0.77
0.78
0.84
0.82
0.81
0.8
0.74
0.75
0.79
0.83
0.81
0.79
0.73
0.76
0.76
0.77
0.8
0.73
0.72
0.7
0.71
0.7
0.7
0.71
0.72
0.76
0.74
0.73
0.72
0.74
0.79
0.84
0.81
0.75
0.75
0.73
0.74
0.79
0.76
0.76
0.79
0.79
0.75
0.75
0.77
0.79
0.77
0.72
0.7
0.72
0.67
0.65
0.69
0.74
0.83
0.77
0.77
0.83
0.76
0.73
0.77
0.82
0.85
0.75
0.72
0.77
0.8
0.81
0.82
0.81
0.79
0.78
0.75
0.73
0.72
0.69
0.69
0.69
0.7
0.66
0.69
0.73
0.72
0.75
0.73
0.74
0.75
0.73
0.75
0.78
0.74
0.69
0.68
0.71
0.75
0.74
0.78
0.73
0.74
0.73
0.75
0.76
0.76
0.77
0.8
0.78
0.79
0.8
0.78
0.77
0.77
0.74
0.75
0.77
0.77
0.79
0.79
0.81
0.82
0.85
0.82
0.78
0.72
0.67
0.61
0.54
0.74
0.64
0.62
0.62
0.61
0.61
0.62
1.22
0.66
0.63
0.64
0.64
0.64
0.64
1.28
0.63
0.61
0.61
0.61
0.6
0.61
0.63
0.67
0.7
0.69
0.73
0.73
0.74
0.75
0.75
0.74
0.69
0.7
0.72
0.74
0.72
0.72
0.77
0.86
0.87
0.82
0.81
0.77
0.72
0.67
0.55
0.83
0.69
0.67
0.69
0.75
0.75
0.76
0.79
0.8
0.79
0.75
0.75
0.77
0.78
0.77
0.76
0.69
0.66
0.67
0.67
0.71
0.76
0.79
0.81
0.8
0.77
0.74
0.71
0.74
0.76
0.79
0.76
0.74
0.77
0.8
0.85
0.87
0.85
0.8
0.78
0.77
0.76
0.77
0.75
0.75
0.82
0.82
0.83
0.83
0.78
0.77
0.78
0.82
0.81
0.81
0.8
0.77
0.76
0.78
0.81
0.8
0.78
0.78
0.79
0.82
0.79
0.78
0.75
0.73
1.43
0.97
0.37
1.13
0.84
0.69
0.7
0.67
0.65
0.67
0.67
0.67
0.7
0.71
0.75
0.47
0.25
0.75
0.7
1.4
0.68
2.59
0.64
0.63
0.62
0.61
0.6
0.59
0.58
0.58
0.57
0.61
0.7
0.68
0.68
0.67
0.67
0.64
0.62
0.61
0.62
0.63
0.64
0.67
0.67
0.7
0.7
0.69
0.71
0.7
0.7
0.7
0.68
0.67
0.69
0.73
0.73
0.73
0.74
0.7
0.71
0.72
0.75
0.78
0.81
0.77
0.75
0.72
0.75
0.75
0.75
0.76
0.75
0.73
0.72
0.72
0.75
0.76
0.77
0.74
0.72
0.71
0.71
0.72
0.74
0.76
0.74
0.71
0.71
0.73
0.77
0.79
0.84
0.8
0.74
0.72
0.75
0.75
0.79
0.81
0.77
0.75
0.73
0.74
0.75
0.76
0.75
0.73
0.73
0.74
0.75
0.76
0.76
0.75
0.72
0.72
0.74
0.75
0.72
0.71
0.7
0.73
0.79
0.81
0.81
0.77
0.76
0.75
0.76
0.77
0.73
0.71
0.7
0.72
0.76
0.77
0.8
0.76
0.77
0.78
0.78
0.78
0.76
0.74
0.73
0.74
0.79
0.82
0.81
0.81
0.78
0.75
0.73
0.75
0.77
0.73
0.72
0.73
0.76
0.78
0.8
0.75
0.72
0.71
0.73
0.77
0.81
0.79
0.77
0.76
0.79
0.78
0.79
0.8
0.77
0.74
0.71
0.73
0.74
0.74
0.74
0.71
0.71
0.7
0.71
0.75
0.76
0.73
0.7
0.66
0.66
0.65
3.15
0.62
0.25
1.59
0.51
1.28
0.59
0.59
0.59
0.57
0.56
0.46
0.67
0.54
0.55
0.56
0.57
0.38
1.04
0.33
1.06
1.28
0.52
0.66
0.56
0.51
0.7
0.61
1.67
0.75
1.2
0.61
0.6
0.59
0.57
0.57
0.56
0.57
0.58
0.61
0.63
0.67
0.7
0.7
0.74
0.73
0.72
0.74
0.69
0.68
0.69
0.72
0.76
0.76
0.71
0.69
0.69
0.71
0.73
0.71
0.68
0.68
0.66
0.7
0.71
0.72
0.72
0.74
0.7
0.7
0.7
0.73
0.76
0.8
0.79
0.77
0.73
0.71
0.71
0.72
0.72
0.73
0.72
0.71
0.69
0.7
0.71
0.75
0.77
0.77
0.73
0.71
0.74
0.74
0.74
0.72
0.7
0.68
0.67
0.68
0.68
0.67
0.67
0.66
0.67
0.69
0.67
0.67
0.65
0.64
0.66
0.67
0.67
0.66
0.67
0.67
0.69
0.7
0.67
0.66
0.67
0.69
0.73
0.74
0.68
0.68
0.68
0.69
0.68
0.66
0.67
0.66
0.67
0.67
0.7
0.7
0.68
0.68
0.69
0.69
0.69
0.68
0.66
0.67
0.68
0.67
0.69
0.66
0.64
0.65
0.65
0.67
0.7
0.71
0.7
0.71
0.73
0.74
0.71
0.71
0.66
0.64
0.65
0.66
0.69
0.72
0.7
0.69
0.69
0.68
0.69
0.7
0.69
0.67
0.66
0.69
0.73
0.8
0.79
0.72
0.69
0.68
0.69
0.7
0.74
0.73
0.7
0.69
0.67
0.68
0.7
0.72
0.74
0.72
0.7
0.72
0.71
0.71
0.69
0.67
0.66
0.68
0.71
0.68
0.66
0.65
0.65
0.64
0.62
0.63
0.64
0.67
0.67
0.68
0.67
0.7
0.71
0.67
0.66
0.68
0.68
0.69
0.67
0.68
0.66
0.66
0.67
0.69
0.69
0.66
0.67
0.66
0.71
0.7
0.7
0.72
0.71
0.74
0.75
0.72
0.72
0.72
0.72
0.72
0.69
0.68
0.68
0.68
0.69
0.71
0.7
0.68
0.67
0.68
0.67
0.68
0.65
0.63
0.61
1.6
0.29
1.27
0.51
0.63
0.74
0.62
0.58
0.6
0.56
0.58
0.43
0.7
0.59
0.42
0.77
0.59
0.6
0.61
0.62
0.65
0.66
0.65
0.63
0.62
0.63
0.6
0.61
1.22
0.38
0.21
1.16
0.67
0.6
0.63
1.83
1.47
1.3
0.65
0.65
0.65
0.65
0.66
0.65
0.65
0.63
0.65
1.43
0.73
0.68
0.67
0.69
0.71
0.73
0.73
0.72
0.72
1.49
0.78
0.74
0.73
1.32
1.29
0.43
0.85
0.62
0.63
0.61
0.61
0.63
0.35
0.3
0.62
0.63
0.62
0.62
0.6
0.59
0.68
0.65
0.68
0.67
0.69
0.7
0.69
0.66
0.64
0.62
0.59
0.59
0.59
0.59
0.61
0.62
0.64
0.64
0.65
0.63
0.62
0.62
0.61
0.63
0.65
0.67
0.67
0.68
0.68
0.67
0.69
0.68
0.69
0.69
0.53
0.65
0.67
1.36
1.25
0.21
0.23
1.29
0.67
0.59
0.48
0.34
0.35
0.59
0.53
3.46
0.57
0.43
0.68
0.55
1.12
0.56
0.56
1.13
0.54
2.06
0.68
0.55
1.12
0.57
0.56
0.56
0.33
0.23
1.1
0.56
0.22
0.33
0.55
0.55
0.55
0.56
0.55
0.57
0.56
1.12
0.56
0.35
0.21
0.53
0.54
0.53
0.53
0.53
0.54
0.54
0.55
0.57
0.59
0.62
0.63
0.61
0.6
0.64
0.7
0.66
0.67
0.64
0.63
0.65
0.64
0.62
0.62
0.64
0.63
0.65
0.66
0.7
0.71
0.7
0.7
0.7
0.69
0.68
0.66
0.64
0.62
0.61
0.65
0.7
0.7
0.71
0.71
0.7
0.7
0.71
0.72
0.72
0.74
0.74
0.69
0.67
0.65
0.67
0.66
0.68
0.68
0.66
0.66
0.66
0.66
0.64
0.62
0.61
0.59
0.58
0.6
0.58
0.59
0.61
0.59
0.6
0.59
0.61
0.62
0.66
0.68
0.64
0.66
0.64
0.67
0.65
0.65
0.64
0.66
0.67
0.67
0.67
0.67
0.66
0.65
0.67
0.67
0.66
0.66
0.63
0.64
0.64
0.65
0.68
0.67
0.68
0.68
0.68
0.68
0.7
0.72
0.71
0.7
0.66
0.64
0.65
0.67
0.69
0.73
0.77
0.76
0.69
0.7
0.72
0.72
0.73
0.72
0.72
0.68
0.68
0.7
0.7
0.74
0.74
0.76
0.73
0.73
0.72
0.76
0.76
0.76
0.75
0.7
0.7
0.69
0.72
0.73
0.74
0.77
0.74
0.71
0.69
0.71
0.71
0.71
0.71
0.66
0.63
0.61
0.63
0.67
0.72
0.74
0.72
0.71
0.69
0.68
0.66
0.67
0.69
0.72
0.71
0.73
0.71
0.67
0.67
0.67
0.68
0.69
0.73
1.99
0.6
0.72
0.65
0.64
0.65
0.66
0.68
0.67
0.69
0.65
0.67
0.65
0.66
0.64
0.64
0.65
0.64
0.68
0.72
0.79
0.74
0.71
0.7
0.68
0.71
0.71
0.69
0.68
0.66
0.66
0.69
0.7
0.74
0.78
0.77
0.76
0.79
0.72
0.73
0.71
0.67
0.67
0.69
0.69
0.72
0.74
0.72
0.69
0.68
0.69
0.7
0.72
0.72
0.71
0.68
0.68
0.7
0.72
0.74
0.77
0.75
0.74
0.71
0.71
0.72
0.74
0.74
0.72
0.72
0.7
0.71
0.73
0.73
0.71
0.72
0.7
0.68
0.7
0.72
0.74
0.76
0.77
0.72
0.72
0.7
0.72
0.73
0.77
0.78
0.75
0.74
0.77
0.76
0.74
0.74
0.71
0.69
0.71
0.74
0.76
0.81
0.79
0.74
0.73
0.72
0.73
0.74
0.78
0.74
0.74
0.73
0.69
0.69
0.69
0.69
0.69
0.71
0.79
0.86
0.86
0.84
0.86
0.81
0.81
0.78
0.78
0.73
0.72
0.74
0.75
0.79
0.8
0.7
0.67
0.65
0.66
0.67
0.69
0.73
0.72
0.73
0.71
0.69
0.71
0.74
0.74
0.74
0.73
0.73
0.72
0.73
0.76
0.8
0.8
0.74
0.7
0.67
0.69
0.69
0.71
0.68
0.69
0.71
0.73
0.74
0.73
0.72
0.7
0.71
0.72
0.74
0.72
0.7
0.69
0.71
0.71
0.74
0.76
0.73
0.71
0.72
0.71
0.71
0.71
0.7
0.68
0.67
0.69
0.73
0.72
0.75
0.76
0.74
0.71
0.72
0.72
0.73
0.71
0.69
0.68
0.69
0.69
0.74
0.76
0.79
0.75
0.75
0.74
0.73
0.73
0.74
0.74
0.73
0.74
0.75
0.8
0.78
0.75
0.74
0.71
0.69
0.69
0.68
0.7
0.71
0.72
0.71
0.7
0.71
0.72
0.73
0.73
0.72
0.71
0.71
0.72
0.73
0.74
0.71
0.68
0.66
0.67
0.67
0.7
0.7
0.69
0.7
0.71
0.74
0.76
0.78
0.77
0.75
0.7
0.69
0.7
0.74
0.73
0.76
0.74
0.72
0.72
0.75
0.75
0.77
0.75
0.73
0.71
0.71
0.71
0.71
0.73
0.74
0.7
0.68
0.69
0.71
0.76
0.76
0.74
0.72
0.71
0.72
0.72
0.72
0.73
0.72
0.7
0.68
0.69
0.71
0.72
0.73
0.7
0.68
0.68
0.69
0.73
0.76
0.79
0.73
0.73
0.72
0.74
0.76
0.78
0.78
0.73
0.7
0.7
0.72
0.73
0.72
0.74
0.72
0.71
0.73
0.74
0.75
0.77
0.76
0.75
0.74
0.77
0.8
0.79
0.78
0.76
0.73
0.71
0.72
0.72
0.75
0.76
0.77
0.74
0.72
0.75
0.76
0.72
0.72
0.7
0.69
0.69
0.72
0.77
0.8
0.84
0.87
0.84
0.81
0.8
0.77
0.74
0.72
0.69
0.69
0.68
0.7
0.74
0.76
0.76
0.72
0.71
0.73
0.73
0.72
0.72
0.7
0.7
0.7
0.7
0.71
0.71
0.72
0.72
0.71
0.71
0.74
0.75
0.74
0.7
0.72
0.72
0.71
0.74
0.75
0.73
0.73
0.72
0.73
0.74
0.75
0.74
0.71
0.69
0.71
0.71
0.72
0.72
0.73
0.72
0.7
0.71
0.73
0.74
0.73
0.71
0.69
0.68
0.71
0.77
0.83
0.8
0.78
0.82
0.8
0.81
0.8
0.75
0.74
0.72
0.7
0.65
0.65
0.63
0.66
0.7
0.67
0.67
0.7
0.73
0.71
0.74
0.7
0.68
0.68
0.73
0.71
0.74
0.76
0.77
0.69
0.69
0.68
0.7
0.74
0.76
0.75
0.7
0.69
0.67
0.67
0.71
0.68
0.73
0.71
0.7
0.69
0.73
0.71
0.69
0.68
0.69
0.67
0.68
0.68
0.7
0.73
0.73
0.71
0.69
0.71
0.72
0.73
0.72
0.72
0.7
0.69
0.7
0.69
0.72
0.71
0.67
0.67
0.69
0.69
0.72
0.73
0.78
0.74
0.73
0.7
0.7
0.7
0.7
0.71
0.78
0.69
0.72
0.68
0.69
0.7
0.74
0.75
0.75
0.82
0.73
0.76
0.7
0.76
0.71
0.77
0.76
0.77
0.74
0.72
0.7
0.7
0.74
0.75
0.78
0.77
0.78
0.73
0.73
0.72
0.72
0.76
0.77
0.83
0.79
0.78
0.91
0.83
0.84
0.81
0.78
0.77
0.76
0.76
0.76
0.76
0.76
0.75
0.75
0.76
0.78
0.78
0.8
0.79
0.77
0.75
0.77
0.77
0.79
0.77
0.76
0.75
0.77
0.78
0.79
0.81
0.79
0.78
0.76
0.77
0.78
0.79
0.81
0.81
0.78
0.79
0.8
0.81
0.8
0.77
0.74
0.74
0.75
0.77
0.77
0.79
0.78
0.82
0.83
0.85
0.83
0.79
0.77
0.79
0.79
0.8
0.78
0.75
0.76
0.77
0.79
0.81
0.79
0.78
0.79
0.82
0.84
0.85
0.82
0.79
0.79
0.79
0.79
0.79
0.77
0.76
0.78
0.79
0.81
0.82
0.81
0.8
0.83
0.85
0.87
0.84
0.79
0.79
0.78
0.79
0.79
0.77
0.77
0.75
0.76
0.79
0.79
0.8
0.79
0.79
0.82
0.84
0.82
0.8
0.78
0.75
0.74
0.76
0.8
0.85
0.85
0.81
0.79
0.81
0.81
0.81
0.8
0.76
0.75
0.74
0.74
0.73
0.77
0.78
0.75
0.74
0.77
0.83
0.82
0.81
0.79
0.77
0.78
0.77
0.76
0.77
0.75
0.72
0.74
0.75
0.77
0.77
0.77
0.73
0.74
0.77
0.78
0.78
0.8
0.76
0.76
0.75
0.78
0.76
0.77
0.76
0.77
0.83
0.89
0.89
0.83
0.84
0.83
0.85
0.83
0.82
0.78
0.79
0.8
0.78
0.78
0.78
0.77
0.78
0.79
0.76
0.75
0.73
0.73
0.76
0.79
0.83
0.82
0.82
0.82
0.87
0.87
0.84
0.81
0.79
0.79
0.78
0.77
0.76
0.75
0.75
0.74
0.76
0.81
0.79
0.78
0.83
0.82
0.85
0.84
0.77
0.74
0.77
0.76
0.78
0.77
0.74
0.73
0.73
0.74
0.77
0.78
0.77
0.76
0.76
0.79
0.78
0.78
0.75
0.72
0.72
0.73
0.75
0.77
0.77
0.73
0.73
0.74
0.76
0.78
0.78
0.75
0.74
0.72
0.75
0.77
0.79
0.78
0.76
0.73
0.76
0.75
0.77
0.76
0.75
0.74
0.73
0.75
0.75
0.76
0.76
0.74
0.73
0.75
0.77
0.78
0.75
0.75
0.76
0.76
0.76
0.77
0.74
0.71
0.7
0.71
0.72
0.77
0.75
0.78
0.81
0.83
0.84
0.84
0.77
0.74
0.74
0.76
0.76
0.76
0.76
0.74
0.72
0.73
0.77
0.76
0.79
0.77
0.73
0.75
0.76
0.8
0.79
0.8
0.75
0.74
0.75
0.76
0.75
0.75
0.76
0.74
0.74
0.74
0.8
0.83
0.9
0.85
0.8
0.78
0.79
0.81
0.82
0.79
0.76
0.76
0.75
0.76
0.78
0.74
0.73
0.74
0.78
0.78
0.79
0.76
0.73
0.76
0.77
0.81
0.81
0.8
0.75
0.75
0.78
0.8
0.8
0.78
0.77
0.77
0.81
0.81
0.84
0.8
0.78
0.73
0.72
0.74
0.8
0.87
0.86
0.81
0.81
0.79
0.78
0.79
0.76
0.74
0.73
0.75
0.75
0.73
0.73
0.72
0.7
0.71
0.73
0.77
0.78
0.78
0.74
0.74
0.77
0.78
0.77
0.74
0.74
0.75
0.77
0.78
0.8
0.78
0.75
0.76
0.77
0.78
0.78
0.78
0.79
0.77
0.79
0.79
0.81
0.8
0.79
0.76
0.74
0.72
0.74
0.75
0.77
0.79
0.77
0.75
0.73
0.78
0.79
0.8
0.81
0.78
0.74
0.73
0.74
0.74
0.77
0.77
0.76
0.77
0.79
0.8
0.81
0.8
0.77
0.77
0.79
0.83
0.79
0.77
0.75
0.76
0.76
0.78
0.74
0.74
0.77
0.81
0.83
0.83
0.8
0.76
0.8
0.81
0.79
0.77
0.76
0.78
0.81
0.81
0.79
0.76
0.75
0.76
0.76
0.75
0.74
0.74
0.75
0.77
0.79
0.78
0.76
0.75
0.76
0.81
0.86
0.84
0.77
0.74
0.73
0.72
0.75
0.76
0.75
0.78
0.79
0.82
0.83
0.83
0.77
0.75
0.78
0.77
0.77
0.76
0.78
0.77
0.74
0.74
0.76
0.77
0.76
0.75
0.72
0.71
0.76
0.78
0.76
0.73
0.72
0.71
0.68
0.7
0.71
0.71
0.66
0.67
0.66
0.65
0.65
0.64
0.64
0.63
0.63
0.6
0.62
0.62
0.62
0.62
0.65
0.67
0.67
0.68
0.68
0.66
0.66
0.67
0.66
0.66
0.71
0.69
0.69
0.71
0.73
0.7
0.73
0.72
0.69
0.66
0.67
0.66
0.68
0.66
0.66
0.64
0.62
0.6
0.58
0.57
0.57
0.58
0.57
0.58
0.57
1.13
0.55
0.55
1.09
0.52
1.57
0.52
0.5
0.4
0.61
0.49
0.49
1.39
0.56
1.42
0.48
0.48
0.48
2.31
0.56
0.48
0.49
0.49
0.51
0.51
0.36
0.66
0.51
0.52
0.5
0.32
0.42
0.26
0.5
0.51
0.45
0.4
0.45
0.72
0.51
0.5
0.5
0.49
0.5
0.49
0.49
0.5
0.49
0.5
0.51
0.52
0.53
0.55
0.55
0.54
0.55
0.57
0.59
0.59
0.6
0.58
0.58
0.58
0.59
0.58
0.6
0.58
0.59
0.6
0.61
0.6
0.62
0.61
0.61
0.61
0.61
0.61
0.63
0.61
0.6
0.63
0.62
0.62
0.66
0.65
0.65
0.65
0.66
0.66
0.67
0.67
0.66
0.66
0.64
0.63
0.63
0.66
0.7
0.69
0.67
0.66
0.66
0.67
0.68
0.69
0.7
0.68
0.67
0.66
0.66
0.68
0.67
0.67
0.67
0.66
0.67
0.68
0.7
0.71
0.72
0.67
0.68
0.68
0.69
0.69
0.69
0.66
0.66
0.67
0.67
0.68
0.66
0.66
0.64
0.64
0.65
0.68
0.75
0.73
0.7
0.71
0.73
0.74
0.75
0.76
0.72
0.7
0.72
0.72
0.72
0.71
0.68
0.67
0.67
0.69
0.68
0.68
0.67
0.65
0.65
0.63
0.63
0.66
0.7
0.71
0.7
0.66
0.68
0.7
0.74
0.74
0.69
0.68
0.68
0.7
0.73
0.75
0.74
0.72
0.67
0.69
1.31
0.21
0.24
0.67
0.71
0.59
0.51
0.68
0.59
0.58
0.27
0.32
0.55
0.57
0.54
0.55
0.54
0.54
0.54
0.55
0.54
0.54
0.54
0.56
0.57
0.57
0.55
0.55
0.56
0.59
0.59
0.65
0.65
0.65
0.65
0.62
0.63
0.64
0.63
0.63
0.6
0.61
0.61
0.62
0.61
0.6
0.61
0.61
0.65
0.63
0.64
0.65
0.7
0.69
0.68
0.69
0.66
0.64
0.64
0.63
0.67
0.68
0.7
0.7
0.67
0.68
0.65
0.68
0.67
0.68
0.71
0.68
0.66
0.64
0.65
0.66
0.7
0.71
0.75
0.69
0.67
0.66
0.68
0.71
0.69
0.69
0.67
0.65
0.64
0.67
0.71
0.77
0.72
0.7
0.66
0.64
0.64
0.65
0.69
0.7
0.68
0.64
0.61
0.6
0.59
0.58
0.57
0.6
0.59
0.59
0.61
0.63
0.67
0.66
0.65
0.66
0.69
0.71
0.76
0.72
0.73
0.72
0.67
0.67
0.67
0.71
0.77
0.77
0.73
0.71
0.7
0.74
0.78
0.75
0.76
0.74
0.72
0.69
0.66
0.66
0.67
0.67
0.71
0.72
0.71
0.69
0.7
0.71
0.71
0.73
0.71
0.7
0.67
0.69
0.69
0.69
0.68
0.67
0.64
0.64
0.65
0.66
0.66
0.66
0.66
0.65
0.67
0.68
0.69
0.71
0.73
0.7
0.68
0.68
0.71
0.73
0.75
0.74
0.72
0.69
0.67
0.69
0.68
0.7
0.72
0.76
0.75
0.72
0.7
0.7
0.72
0.74
0.74
0.74
0.71
0.69
0.69
0.68
0.67
0.68
0.68
0.65
0.63
0.61
0.61
0.63
0.64
0.63
0.62
0.63
0.67
0.7
0.72
0.74
0.75
0.74
0.7
0.71
0.71
0.69
0.64
0.64
0.65
0.66
0.67
0.66
0.69
0.73
0.73
0.74
0.73
0.72
0.7
0.68
0.67
0.68
0.69
0.74
0.75
0.74
0.72
0.69
0.72
0.74
0.74
0.73
0.69
0.68
0.67
0.68
0.68
0.71
0.72
0.72
0.7
0.69
0.69
0.7
0.68
0.69
0.69
0.72
0.71
0.69
0.69
0.66
0.68
0.7
0.73
0.74
0.73
0.72
0.72
0.68
0.67
0.66
0.67
0.7
0.73
0.73
0.72
0.72
0.7
0.69
0.68
0.68
0.67
0.67
0.68
0.67
0.68
0.69
0.74
0.74
0.75
0.71
0.68
0.67
0.66
0.66
0.67
0.65
0.62
0.62
0.61
0.61
0.6
0.62
0.63
0.66
0.66
0.65
0.65
0.67
0.71
0.71
0.71
0.68
0.68
0.68
0.7
0.71
0.69
0.67
0.64
0.63
0.63
0.61
0.61
0.6
0.59
0.6
0.58
0.58
0.59
0.59
0.61
0.63
0.64
0.64
0.63
0.63
0.65
0.67
0.69
0.66
0.64
0.62
0.61
0.61
0.6
0.6
0.6
0.6
0.61
0.64
0.65
0.71
0.75
0.76
0.76
0.72
0.69
0.7
0.7
0.69
0.67
0.65
0.64
0.63
0.63
0.64
0.67
0.69
0.72
0.71
0.71
0.7
0.7
0.7
0.71
0.71
0.72
0.71
0.69
0.66
0.65
0.67
0.69
0.69
0.69
0.67
0.67
0.65
0.64
0.66
0.65
0.67
0.69
0.68
0.7
0.68
0.7
0.71
0.72
0.71
0.69
0.67
0.64
0.64
0.64
0.66
0.67
0.68
0.69
0.71
0.72
0.76
0.79
0.82
0.85
0.78
0.72
0.71
0.65
1.2
0.59
0.58
0.59
0.59
0.63
0.68
0.72
0.73
0.76
0.76
0.73
0.7
0.69
0.7
0.69
0.72
0.74
0.75
0.74
0.73
0.71
0.73
0.74
0.75
0.73
0.73
0.71
0.7
0.7
0.73
0.73
0.73
0.72
0.71
0.68
0.7
0.69
0.73
0.73
0.73
0.69
0.68
0.67
0.68
0.7
0.76
0.77
0.67
0.7
0.69
0.7
1.32
0.64
0.63
0.61
0.63
0.25
0.35
0.61
0.62
0.63
0.65
0.64
0.66
0.7
0.7
0.71
0.68
0.66
0.62
0.61
0.6
0.6
0.62
0.6
0.59
0.59
0.58
0.59
0.59
0.63
0.64
0.65
0.64
0.64
0.66
0.66
0.67
0.68
0.66
0.66
0.67
0.66
0.67
0.68
0.66
0.65
0.66
0.66
0.66
0.69
0.7
0.7
0.69
0.68
0.66
0.66
0.65
0.67
0.67
0.69
0.67
0.64
0.63
0.61
0.62
0.72
0.74
0.75
0.76
0.76
0.72
0.68
0.65
0.64
0.63
0.61
0.62
0.64
0.67
0.69
0.7
0.73
0.76
0.75
0.78
0.75
0.74
0.73
0.71
0.7
0.69
0.69
0.71
0.71
0.74
0.74
0.74
0.72
0.71
0.7
0.69
0.69
0.7
0.72
0.7
0.69
0.69
0.72
0.73
0.76
0.73
0.72
0.7
0.69
0.69
0.71
0.73
0.73
0.72
0.75
0.71
0.71
0.69
0.69
0.7
0.73
0.74
0.74
0.7
0.7
0.7
0.7
0.69
0.7
0.68
0.68
0.67
0.68
0.69
0.68
0.69
0.68
0.67
0.67
0.68
0.72
0.71
0.72
0.72
0.7
0.67
0.71
0.7
0.71
0.71
0.69
0.68
0.67
0.67
0.69
0.69
0.69
0.69
0.69
0.68
0.68
0.69
0.72
0.7
0.7
0.67
0.66
0.66
0.67
0.67
0.69
0.71
0.71
0.7
0.71
0.73
0.78
0.78
0.74
0.72
0.68
0.67
0.67
0.68
0.69
0.69
0.71
0.71
0.7
0.7
0.68
0.69
0.72
0.73
0.74
0.72
0.7
0.68
0.67
0.68
0.69
0.73
0.73
0.73
0.72
0.7
0.7
0.7
0.71
0.71
0.69
0.67
0.67
0.67
0.7
0.72
0.74
0.74
0.72
0.69
0.72
0.74
0.73
0.71
0.71
0.68
0.66
0.65
0.66
0.67
0.73
0.8
0.78
0.75
0.75
0.71
0.68
0.67
0.65
0.63
0.63
0.64
0.66
0.69
0.7
0.68
0.66
0.65
0.65
0.64
0.64
0.66
0.66
0.68
0.71
0.73
0.74
0.73
0.72
0.69
0.67
0.69
0.71
0.72
0.73
0.71
0.69
0.68
0.68
0.69
0.71
0.72
0.7
0.7
0.68
0.68
0.68
0.69
0.73
0.73
0.74
0.74
0.7
0.7
0.68
0.69
0.71
0.74
0.74
0.74
0.73
0.7
0.73
0.76
0.77
0.78
0.77
0.73
0.71
0.7
0.68
0.71
0.73
0.76
0.76
0.73
0.72
0.75
0.74
0.72
0.72
0.7
0.69
0.68
0.7
0.72
0.72
0.75
0.76
0.74
0.72
0.72
0.72
0.72
0.69
0.7
0.69
0.67
0.66
0.66
0.67
0.71
0.74
0.76
0.73
0.71
0.7
0.71
0.71
0.7
0.7
0.68
0.66
0.66
0.67
0.68
0.69
0.7
0.72
0.7
0.67
0.67
0.69
0.71
0.72
0.73
0.73
0.73
0.72
0.71
0.73
0.75
0.74
0.75
0.76
0.75
0.72
0.71
0.7
0.72
0.73
0.74
0.74
0.72
0.7
0.69
0.67
0.69
0.71
0.73
0.75
0.74
0.73
0.71
0.72
0.74
0.73
0.72
0.71
0.68
0.68
0.68
0.7
0.73
0.73
0.75
0.74
0.74
0.72
0.73
0.75
0.73
0.73
0.7
0.68
0.67
0.66
0.68
0.71
0.74
0.71
0.73
0.74
0.75
0.75
0.75
0.73
0.69
0.68
0.68
0.7
0.72
0.72
0.75
0.74
0.75
0.77
0.77
0.76
0.73
0.7
0.67
0.68
0.7
0.74
0.73
0.75
0.73
0.71
0.73
0.77
0.8
0.79
0.8
0.74
0.73
0.71
0.71
0.73
0.74
0.75
0.73
0.72
0.7
0.7
0.72
0.73
0.76
0.74
0.73
0.68
0.67
0.67
0.67
0.71
0.75
0.73
0.75
0.81
0.84
0.83
0.83
0.77
0.72
0.7
0.68
0.7
0.7
0.7
0.7
0.69
0.68
0.71
0.72
0.72
0.71
0.69
0.69
0.7
0.71
0.72
0.72
0.7
0.69
0.68
0.7
0.7
0.7
0.67
0.68
0.66
0.64
0.66
0.68
0.69
0.71
0.71
0.7
0.7
0.7
0.73
0.71
0.69
0.68
0.66
0.66
0.64
0.65
0.68
0.68
0.7
0.71
0.7
0.69
0.7
0.69
0.7
0.7
0.72
0.69
0.68
0.69
0.68
0.7
0.69
0.71
0.71
0.69
0.68
0.68
0.69
0.72
0.74
0.72
0.71
0.69
0.72
0.75
0.75
0.77
0.75
0.73
0.71
0.73
0.74
0.73
0.72
0.72
0.7
0.69
0.69
0.71
0.74
0.76
0.78
0.75
0.73
0.72
0.73
0.75
0.77
0.76
0.71
0.7
0.69
0.71
0.74
0.77
0.77
0.76
0.75
0.76
0.75
0.76
0.76
0.75
0.71
0.71
0.71
0.71
0.73
0.73
0.71
0.7
0.71
0.69
0.73
0.73
0.75
0.72
0.7
0.71
0.74
0.78
0.78
0.81
0.75
0.72
0.72
0.73
0.73
0.73
0.72
0.7
0.69
0.69
0.72
0.76
0.73
0.75
0.71
0.71
0.71
0.73
0.72
0.7
0.7
0.67
0.67
0.67
0.71
0.77
0.85
0.89
0.88
0.81
0.83
0.84
0.83
0.82
0.78
0.77
0.78
0.76
0.76
0.75
0.74
0.73
0.74
0.75
0.74
0.75
0.75
0.74
0.71
0.71
0.71
0.72
0.72
0.72
0.7
0.71
0.69
0.7
0.72
0.75
0.76
0.73
0.71
0.69
0.68
0.68
0.69
0.71
0.74
0.75
0.74
0.8
0.8
0.8
0.78
0.79
0.73
0.72
0.69
0.7
0.74
0.79
0.83
0.8
0.75
0.74
0.74
0.76
0.78
0.75
0.76
0.74
0.73
0.74
0.75
0.76
0.78
0.73
0.72
0.68
0.68
0.7
0.69
0.72
0.73
0.71
0.71
0.72
0.78
0.79
0.77
0.74
0.74
0.74
0.77
0.79
0.77
0.77
0.74
0.72
0.7
0.71
0.72
0.71
0.72
0.73
0.72
0.69
0.68
0.69
0.69
0.68
0.69
0.69
0.7
0.71
0.72
0.75
0.78
0.78
0.74
0.71
0.72
0.73
0.76
0.75
0.73
0.71
0.71
0.71
0.68
0.7
0.7
0.69
0.67
0.68
0.7
0.71
0.72
0.71
0.7
0.69
0.68
0.69
0.68
0.73
0.71
0.69
0.69
0.71
0.72
0.74
0.76
0.75
0.74
0.72
0.73
0.73
0.75
0.77
0.7
0.68
0.67
0.66
0.69
0.74
0.78
0.79
0.77
0.76
0.77
0.8
0.8
0.8
0.8
0.76
0.71
0.7
0.69
0.7
0.7
0.72
0.74
0.74
0.75
0.81
0.88
0.94
0.86
0.8
0.8
0.8
0.8
0.79
0.8
0.78
0.77
0.74
0.71
0.68
0.68
0.74
0.82
0.84
0.79
0.81
0.84
0.87
0.87
0.84
0.83
0.81
0.82
0.82
0.83
0.79
0.78
0.74
0.75
0.71
0.7
0.71
0.72
0.7
0.72
0.75
0.8
0.79
0.81
0.75
0.73
0.74
0.73
0.74
0.75
0.72
0.7
0.69
0.69
0.73
0.76
0.76
0.76
0.76
0.77
0.79
0.8
0.8
0.8
0.82
0.76
0.72
0.69
0.69
0.69
0.72
0.74
0.79
0.76
0.76
0.8
0.83
0.86
0.83
0.79
0.74
0.74
0.75
0.76
0.74
0.73
0.72
0.7
0.72
0.74
0.75
0.77
0.74
0.72
0.7
0.71
0.72
0.73
0.73
0.73
0.72
0.69
0.69
0.69
0.69
0.73
0.74
0.72
0.71
0.71
0.72
0.75
0.77
0.77
0.74
0.73
0.75
0.74
0.75
0.73
0.74
0.71
0.7
0.71
0.75
0.74
0.76
0.75
0.72
0.71
0.68
0.68
0.7
0.75
0.78
0.75
0.75
0.76
0.81
0.84
0.84
0.81
0.76
0.74
0.76
0.76
0.76
0.75
0.75
0.74
0.71
0.7
0.73
0.73
0.73
0.74
0.72
0.69
0.68
0.67
0.67
0.73
0.79
0.82
0.8
0.79
0.78
0.81
0.78
0.78
0.73
0.71
0.71
0.72
0.75
0.77
0.76
0.73
0.73
0.73
0.75
0.75
0.76
0.73
0.72
0.72
0.73
0.72
0.76
0.73
0.74
0.72
0.71
0.69
0.71
0.72
0.73
0.72
0.73
0.79
0.8
0.79
0.75
0.72
0.7
0.69
0.71
0.74
0.81
0.83
0.83
0.78
0.74
0.74
0.74
0.73
0.73
0.71
0.7
0.68
0.71
0.73
0.81
0.84
0.87
0.83
0.78
0.73
0.71
0.7
0.72
0.72
0.72
0.72
0.74
0.76
0.78
0.77
0.78
0.8
0.74
0.72
0.7
0.72
0.77
0.76
0.79
0.78
0.77
0.83
0.89
0.9
0.86
0.81
0.74
0.72
0.73
0.75
0.78
0.8
0.76
0.75
0.76
0.78
0.79
0.78
0.77
0.77
0.74
0.71
0.7
0.71
0.72
0.74
0.73
0.73
0.73
0.73
0.75
0.75
0.77
0.75
0.73
0.73
0.75
0.75
0.78
0.75
0.74
0.73
0.73
0.75
0.75
0.75
0.74
0.73
0.74
0.75
0.76
0.79
0.73
0.73
0.74
0.76
0.77
0.77
0.74
0.73
0.73
0.76
0.79
0.81
0.78
0.77
0.79
0.81
0.82
0.79
0.76
0.75
0.75
0.77
0.79
0.77
0.77
0.75
0.77
0.78
0.78
0.76
0.77
0.76
0.77
0.82
0.81
0.8
0.78
0.75
0.7
0.68
0.65
0.64
0.61
0.6
0.6
0.6
0.61
0.62
0.62
0.61
0.6
0.6
0.6
0.61
0.61
0.61
0.63
0.65
0.66
0.68
0.69
0.67
0.66
0.66
0.66
0.66
0.68
0.68
0.68
0.67
0.66
0.68
0.7
0.73
0.73
0.7
0.71
0.69
0.69
0.69
0.71
0.72
0.71
0.69
0.68
0.68
0.67
0.68
0.68
0.69
0.69
0.7
0.71
0.72
0.74
0.74
0.75
0.72
0.71
0.7
0.69
0.7
0.71
0.71
0.71
0.71
0.7
0.73
0.75
0.75
0.73
0.72
0.69
0.69
0.73
0.78
0.84
0.83
0.84
0.82
0.76
0.71
0.69
0.72
0.85
0.91
0.94
0.91
0.85
0.85
0.83
0.81
0.78
0.77
0.75
0.76
0.78
0.79
0.77
0.74
0.74
0.73
0.74
0.74
0.78
0.77
0.75
0.75
0.78
0.78
0.79
0.8
0.79
0.78
0.75
0.75
0.75
0.76
0.76
0.77
0.76
0.74
0.73
0.73
0.72
0.74
0.74
0.73
0.74
0.72
0.72
0.75
0.82
0.8
0.8
0.76
0.73
0.71
0.73
0.73
0.71
0.72
0.7
0.69
0.69
0.7
0.71
0.72
0.73
0.71
0.7
0.69
0.71
0.69
0.7
0.72
0.73
0.72
0.71
0.75
0.79
0.77
0.75
0.73
0.69
0.71
0.74
0.79
0.81
0.79
0.78
0.8
0.82
0.81
0.79
0.75
0.73
0.72
0.74
0.73
0.74
0.73
0.73
0.72
0.73
0.74
0.74
0.75
0.74
0.73
0.72
0.75
0.79
0.78
0.78
0.78
0.74
0.73
0.74
0.75
0.75
0.77
0.8
0.78
0.76
0.73
0.74
0.76
0.75
0.76
0.75
0.72
0.74
0.75
0.74
0.76
0.74
0.73
0.72
0.72
0.73
0.75
0.78
0.79
0.76
0.72
0.69
0.69
0.69
0.73
0.8
0.84
0.8
0.83
0.85
0.91
0.93
0.89
0.82
0.75
0.74
0.77
0.8
0.81
0.77
0.77
0.75
0.77
0.77
0.77
0.79
0.78
0.75
0.73
0.72
0.71
0.74
0.78
0.77
0.78
0.73
0.71
0.69
0.69
0.7
0.7
0.76
0.8
0.82
0.79
0.82
0.83
0.82
0.81
0.79
0.78
0.77
0.77
0.79
0.77
0.76
0.76
0.74
0.73
0.74
0.75
0.77
0.78
0.76
0.74
0.73
0.72
0.73
0.74
0.76
0.75
0.77
0.74
0.77
0.79
0.84
0.83
0.79
0.77
0.76
0.79
0.79
0.81
0.79
0.75
0.74
0.74
0.73
0.74
0.74
0.73
0.73
0.74
0.75
0.77
0.78
0.79
0.77
0.75
0.75
0.78
0.78
0.76
0.76
0.74
0.73
0.75
0.74
0.75
0.74
0.73
0.72
0.72
0.72
0.74
0.75
0.74
0.72
0.71
0.71
0.71
0.73
0.74
0.74
0.73
0.75
0.76
0.75
0.77
0.74
0.74
0.73
0.73
0.73
0.73
0.72
0.72
0.71
0.7
0.73
0.74
0.74
0.76
0.73
0.72
0.73
0.74
0.75
0.74
0.73
0.71
0.72
0.75
0.8
0.81
0.8
0.75
0.73
0.75
0.76
0.77
0.78
0.8
0.81
0.79
0.77
0.8
0.82
0.82
0.78
0.76
0.78
0.78
0.78
0.8
0.78
0.76
0.74
0.76
0.78
0.81
0.81
0.77
0.76
0.74
0.77
0.78
0.78
0.76
0.74
0.71
0.68
0.69
0.73
0.86
0.93
0.91
0.9
0.92
0.88
0.88
0.86
0.8
0.79
0.71
0.72
0.79
0.81
0.77
0.77
0.9
0.79
0.9
0.82
0.83
0.77
0.73
0.72
0.72
0.73
0.78
0.75
0.76
0.78
0.92
0.84
0.9
0.78
0.75
0.76
0.77
0.77
0.8
0.75
0.75
0.76
0.79
0.81
0.78
0.76
0.76
0.77
0.76
0.74
0.74
0.7
0.68
0.72
0.81
0.86
0.81
0.75
0.75
0.79
0.86
0.8
0.8
0.8
0.78
0.74
0.79
0.78
0.86
0.81
0.78
0.74
0.73
0.76
0.75
0.78
0.78
0.71
0.71
0.7
0.72
0.83
0.89
0.8
0.79
0.75
0.76
0.98
0.89
0.84
0.82
0.81
0.81
0.82
0.82
0.81
0.8
0.79
0.81
0.82
0.81
0.83
0.8
0.79
0.79
0.79
0.8
0.8
0.79
0.77
0.76
0.77
0.79
0.82
0.81
0.79
0.78
0.81
0.81
0.82
0.8
0.78
0.82
0.81
0.8
0.8
0.79
0.76
0.76
0.77
0.81
0.82
0.84
0.81
0.77
0.81
0.83
0.82
0.84
0.82
0.8
0.79
0.78
0.79
0.79
0.8
0.78
0.77
0.8
0.83
0.84
0.84
0.82
0.82
0.82
0.82
0.81
0.8
0.79
0.8
0.8
0.8
0.79
0.79
0.81
0.81
0.82
0.82
0.81
0.8
0.81
0.82
0.83
0.84
0.83
0.79
0.76
0.74
0.75
0.79
0.76
0.78
0.81
0.83
0.84
0.83
0.79
0.77
0.8
0.8
0.8
0.81
0.77
0.75
0.76
0.75
0.79
0.81
0.8
0.78
0.79
0.84
0.88
0.89
0.85
0.79
0.79
0.78
0.76
0.77
0.76
0.76
0.79
0.9
1
1.01
0.97
0.88
0.84
0.8
0.8
0.79
0.77
0.75
0.75
0.75
0.74
0.71
0.7
0.71
0.74
0.81
0.88
0.84
0.82
0.86
0.86
0.88
0.8
0.76
0.77
0.79
0.8
0.79
0.77
0.74
0.73
0.75
0.81
0.83
0.83
0.79
0.77
0.79
0.79
0.78
0.74
0.7
0.66
0.66
0.7
0.79
0.83
0.84
0.82
0.86
0.84
0.82
0.79
0.77
0.77
0.77
0.76
0.73
0.72
0.73
0.76
0.78
0.8
0.78
0.74
0.73
0.74
0.77
0.76
0.8
0.81
0.78
0.77
0.8
0.8
0.84
0.85
0.79
0.76
0.78
0.78
0.8
0.82
0.81
0.81
0.74
0.7
0.66
0.65
0.67
0.75
0.84
0.9
0.89
0.92
0.96
0.92
0.91
0.88
0.83
0.8
0.8
0.74
0.75
0.77
0.76
0.75
0.73
0.77
0.84
0.86
0.79
0.8
0.75
0.73
0.75
0.75
0.79
0.83
0.81
0.81
0.86
0.94
0.96
0.91
0.83
0.82
0.82
0.82
0.82
0.81
0.8
0.78
0.79
0.8
0.82
0.81
0.82
0.82
0.8
0.82
0.82
0.82
0.83
0.84
0.8
0.78
0.77
0.69
0.7
0.73
0.74
0.75
0.75
0.85
0.89
0.93
0.92
0.88
0.84
0.84
0.83
0.83
0.82
0.8
0.79
0.78
0.76
0.76
0.76
0.75
0.73
0.75
0.78
0.82
0.76
0.75
0.79
0.81
0.82
0.77
0.76
0.75
0.8
0.85
0.82
0.78
0.76
0.73
0.77
0.84
0.79
0.82
0.75
0.76
0.78
0.82
0.82
0.82
0.83
0.77
0.75
0.73
0.81
0.79
0.82
0.75
0.75
0.8
0.86
0.89
0.8
0.79
0.8
0.85
0.81
0.86
0.78
0.73
0.69
0.65
0.63
0.63
0.67
0.77
0.81
0.79
0.85
0.89
0.89
0.9
0.86
0.81
0.85
0.84
0.82
0.78
0.73
0.72
0.73
0.74
0.79
0.78
0.74
0.73
0.74
0.8
0.81
0.85
0.8
0.77
0.72
0.72
0.73
0.77
0.86
0.85
0.8
0.8
0.83
0.8
0.82
0.85
0.82
0.8
0.79
0.81
0.83
0.83
0.78
0.77
0.8
0.81
0.82
0.8
0.76
0.76
0.76
0.78
0.78
0.78
0.76
0.75
0.76
0.75
0.8
0.77
0.73
0.72
0.69
0.73
0.79
0.86
0.85
0.78
0.75
0.74
0.73
0.73
0.72
0.7
0.72
0.76
0.85
0.88
0.82
0.76
0.72
0.73
0.74
0.77
0.76
0.78
0.74
0.72
0.73
0.74
0.8
0.79
0.8
0.76
0.74
0.75
0.77
0.78
0.8
0.79
0.77
0.75
0.77
0.75
0.76
0.76
0.78
0.8
0.81
0.82
0.78
0.75
0.73
0.71
0.7
0.71
0.73
0.73
0.74
0.76
0.81
0.88
0.86
0.82
0.8
0.8
0.82
0.8
0.77
0.76
0.73
0.71
0.7
0.71
0.72
0.71
0.68
0.67
0.67
0.71
0.78
0.81
0.83
0.85
0.87
0.91
0.92
0.86
0.85
0.81
0.81
0.81
0.82
0.8
0.8
0.77
0.77
0.76
0.77
0.79
0.81
0.82
0.8
0.79
0.8
0.8
0.79
0.79
0.79
0.8
0.81
0.78
0.78
0.79
0.79
0.81
0.77
0.77
0.74
0.74
0.74
0.79
0.85
0.91
0.9
0.83
0.82
0.84
0.86
0.87
0.83
0.8
0.8
0.78
0.78
0.78
0.79
0.77
0.76
0.77
0.74
0.72
0.7
0.7
0.7
0.72
0.84
0.86
0.9
0.86
0.82
0.84
0.84
0.84
0.83
0.8
0.76
0.76
0.75
0.73
0.71
0.69
0.7
0.7
0.73
0.73
0.71
0.71
0.72
0.76
0.74
0.75
0.74
0.73
0.73
0.75
0.74
0.75
0.76
0.76
0.78
0.79
0.8
0.77
0.78
0.78
0.78
0.77
0.77
0.78
0.76
0.75
0.72
0.73
0.74
0.75
0.78
0.77
0.76
0.73
0.69
0.68
0.68
0.71
0.72
0.72
0.74
0.76
0.87
0.86
0.87
0.8
0.73
0.72
0.71
0.71
0.71
0.71
0.7
0.68
0.69
0.69
0.7
0.72
0.71
0.7
0.7
0.71
0.71
0.72
0.72
0.71
0.71
0.69
0.68
0.69
0.73
0.75
0.73
0.71
0.71
0.72
0.74
0.75
0.77
0.77
0.76
0.76
0.77
0.78
0.8
0.79
0.76
0.76
0.77
0.77
0.78
0.78
0.78
0.75
0.72
0.72
0.7
0.71
0.71
0.72
0.71
0.71
0.75
0.79
0.81
0.84
0.79
0.78
0.77
0.79
0.8
0.8
0.76
0.75
0.76
0.76
0.78
0.78
0.79
0.78
0.75
0.75
0.76
0.77
0.78
0.79
0.77
0.74
0.72
0.73
0.78
0.73
0.7
0.69
0.69
0.69
0.75
0.85
0.9
0.9
0.84
0.82
0.84
0.84
0.8
0.75
0.72
0.74
0.78
0.81
0.82
0.76
0.75
0.72
0.7
0.75
0.81
0.85
0.84
0.8
0.8
0.81
0.8
0.81
0.84
0.84
0.81
0.79
0.78
0.79
0.75
0.73
0.73
0.71
0.71
0.73
0.74
0.75
0.77
0.79
0.77
0.74
0.76
0.78
0.79
0.77
0.79
0.77
0.75
0.74
0.77
0.75
0.76
0.76
0.75
0.73
0.75
0.76
0.76
0.75
0.73
0.75
0.75
0.77
0.77
0.79
0.76
0.75
0.76
0.79
0.78
0.8
0.79
0.78
0.76
0.71
0.68
0.67
0.7
0.79
0.84
0.84
0.85
0.93
0.97
0.94
0.89
0.84
0.77
0.76
0.8
0.81
0.77
0.75
0.74
0.75
0.75
0.78
0.77
0.77
0.76
0.77
0.77
0.79
0.77
0.75
0.74
0.73
0.73
0.77
0.73
0.72
0.69
0.7
0.74
0.84
0.86
0.91
0.89
0.82
0.81
0.82
0.82
0.82
0.79
0.77
0.75
0.74
0.75
0.76
0.77
0.78
0.82
0.82
0.78
0.78
0.78
0.79
0.84
0.89
0.91
0.91
0.87
0.85
0.85
0.86
0.84
0.85
0.83
0.82
0.78
0.74
0.66
0.65
0.66
0.68
0.75
0.92
0.92
0.95
0.91
0.9
0.9
0.9
0.88
0.84
0.83
0.82
0.82
0.81
0.8
0.78
0.76
0.75
0.74
0.75
0.79
0.79
0.76
0.76
0.77
0.8
0.81
0.8
0.78
0.81
0.83
0.85
0.83
0.83
0.85
0.85
0.87
0.88
0.85
0.83
0.83
0.82
0.82
0.8
0.78
0.78
0.78
0.79
0.82
0.82
0.82
0.8
0.8
0.81
0.82
0.83
0.79
0.78
0.8
0.81
0.82
0.81
0.79
0.79
0.76
0.75
0.75
0.77
0.78
0.79
0.83
0.88
0.94
0.94
0.85
0.8
0.81
0.82
0.81
0.83
0.79
0.77
0.77
0.79
0.83
0.8
0.79
0.81
0.82
0.81
0.8
0.77
0.75
0.74
0.75
0.76
0.77
0.76
0.76
0.82
0.86
0.89
0.9
0.88
0.86
0.87
0.85
0.86
0.84
0.82
0.79
0.8
0.8
0.83
0.83
0.81
0.8
0.83
0.84
0.82
0.84
0.81
0.8
0.78
0.8
0.82
0.81
0.78
0.79
0.79
0.82
0.81
0.8
0.8
0.81
0.82
0.84
0.81
0.79
0.79
0.81
0.84
0.83
0.79
0.79
0.78
0.78
0.79
0.77
0.78
0.77
0.79
0.81
0.82
0.8
0.78
0.79
0.81
0.82
0.84
0.8
0.77
0.75
0.76
0.77
0.8
0.81
0.81
0.82
0.79
0.83
0.86
0.85
0.8
0.79
0.79
0.82
0.85
0.84
0.82
0.8
0.79
0.82
0.83
0.83
0.82
0.78
0.76
0.77
0.77
0.78
0.78
0.78
0.78
0.82
0.82
0.83
0.83
0.82
0.8
0.79
0.8
0.8
0.8
0.79
0.78
0.82
0.86
0.86
0.84
0.79
0.78
0.81
0.8
0.8
0.8
0.77
0.76
0.76
0.79
0.82
0.83
0.84
0.82
0.79
0.84
0.85
0.86
0.87
0.83
0.78
0.79
0.79
0.8
0.8
0.82
0.81
0.79
0.83
0.87
0.86
0.84
0.81
0.8
0.79
0.77
0.79
0.77
0.76
0.76
0.77
0.77
0.77
0.78
0.77
0.76
0.77
0.77
0.77
0.78
0.75
0.75
0.78
0.81
0.83
0.8
0.78
0.79
0.79
0.8
0.8
0.76
0.75
0.75
0.77
0.77
0.77
0.76
0.74
0.77
0.77
0.77
0.77
0.75
0.74
0.74
0.76
0.76
0.78
0.77
0.76
0.74
0.76
0.76
0.78
0.74
0.74
0.74
0.75
0.8
0.81
0.79
0.76
0.74
0.75
0.78
0.79
0.78
0.77
0.73
0.75
0.76
0.77
0.78
0.76
0.75
0.75
0.76
0.78
0.78
0.75
0.74
0.76
0.78
0.77
0.76
0.74
0.72
0.72
0.72
0.73
0.74
0.74
0.74
0.75
0.78
0.8
0.79
0.77
0.76
0.76
0.77
0.78
0.79
0.77
0.76
0.76
0.78
0.8
0.78
0.78
0.77
0.76
0.75
0.79
0.79
0.77
0.75
0.77
0.79
0.8
0.82
0.79
0.75
0.78
0.77
0.78
0.79
0.78
0.76
0.75
0.75
0.77
0.8
0.76
0.73
0.72
0.74
0.76
0.81
0.84
0.8
0.81
0.83
0.84
0.83
0.81
0.78
0.75
0.77
0.79
0.79
0.8
0.79
0.75
0.74
0.74
0.77
0.8
0.79
0.78
0.77
0.74
0.74
0.77
0.77
0.79
0.77
0.75
0.76
0.78
0.78
0.78
0.76
0.74
0.74
0.74
0.75
0.76
0.74
0.74
0.72
0.77
0.78
0.77
0.77
0.77
0.74
0.73
0.73
0.74
0.75
0.77
0.76
0.73
0.71
0.71
0.73
0.74
0.77
0.75
0.76
0.77
0.78
0.8
0.8
0.77
0.74
0.74
0.77
0.78
0.77
0.74
0.75
0.74
0.76
0.77
0.78
0.76
0.74
0.74
0.75
0.75
0.76
0.77
0.76
0.75
0.73
0.74
0.75
0.76
0.75
0.75
0.73
0.74
0.76
0.75
0.75
0.72
0.71
0.7
0.72
0.75
0.75
0.76
0.73
0.72
0.74
0.76
0.78
0.78
0.75
0.74
0.76
0.76
0.77
0.77
0.73
0.72
0.73
0.73
0.76
0.77
0.76
0.75
0.74
0.76
0.77
0.78
0.8
0.78
0.76
0.74
0.73
0.73
0.75
0.76
0.74
0.74
0.75
0.77
0.79
0.8
0.78
0.76
0.75
0.77
0.79
0.77
0.76
0.76
0.77
0.75
0.76
0.74
0.75
0.77
0.78
0.76
0.77
0.74
0.75
0.78
0.79
0.78
0.79
0.78
0.79
0.81
0.8
0.8
0.77
0.75
0.77
0.76
0.78
0.78
0.75
0.74
0.75
0.76
0.76
0.77
0.75
0.75
0.75
0.77
0.79
0.78
0.76
0.73
0.73
0.76
0.78
0.77
0.76
0.75
0.75
0.76
0.79
0.8
0.8
0.78
0.76
0.78
0.79
0.81
0.78
0.75
0.75
0.74
0.77
0.77
0.75
0.74
0.74
0.74
0.8
0.81
0.79
0.78
0.76
0.75
0.78
0.79
0.81
0.79
0.77
0.73
0.74
0.78
0.76
0.73
0.72
0.72
0.74
0.75
0.76
0.76
0.75
0.75
0.74
0.76
0.78
0.78
0.76
0.74
0.75
0.75
0.77
0.79
0.78
0.76
0.76
0.76
0.77
0.76
0.77
0.75
0.73
0.71
0.71
0.71
0.73
0.74
0.75
0.74
0.74
0.77
0.78
0.79
0.76
0.76
0.75
0.73
0.73
0.74
0.75
0.76
0.75
0.77
0.79
0.84
0.86
0.84
0.78
0.77
0.77
0.79
0.81
0.81
0.78
0.77
0.8
0.84
0.85
0.83
0.83
0.77
0.76
0.75
0.76
0.78
0.77
0.76
0.75
0.78
0.8
0.82
0.82
0.79
0.77
0.78
0.79
0.81
0.77
0.77
0.78
0.8
0.81
0.82
0.81
0.82
0.76
0.73
0.72
0.76
0.78
0.76
0.76
0.78
0.84
0.94
0.97
0.93
0.87
0.85
0.86
0.82
0.83
0.8
0.78
0.78
0.78
0.79
0.78
0.77
0.76
0.76
0.78
0.78
0.79
0.78
0.78
0.78
0.8
0.8
0.82
0.79
0.77
0.78
0.8
0.81
0.81
0.8
0.79
0.83
0.86
0.88
0.89
0.86
0.82
0.81
0.81
0.81
0.83
0.82
0.79
0.78
0.78
0.78
0.8
0.81
0.79
0.79
0.8
0.81
0.83
0.83
0.8
0.78
0.78
0.78
0.79
0.8
0.78
0.77
0.77
0.78
0.79
0.81
0.77
0.76
0.75
0.76
0.79
0.84
0.86
0.85
0.83
0.84
0.9
0.89
0.85
0.83
0.84
0.82
0.83
0.82
0.8
0.78
0.79
0.81
0.82
0.84
0.8
0.78
0.78
0.79
0.79
0.8
0.79
0.78
0.78
0.8
0.83
0.83
0.82
0.81
0.81
0.81
0.81
0.81
0.8
0.79
0.77
0.78
0.8
0.79
0.78
0.78
0.81
0.83
0.83
0.81
0.78
0.78
0.78
0.8
0.82
0.81
0.79
0.79
0.78
0.82
0.81
0.83
0.79
0.77
0.78
0.78
0.79
0.79
0.77
0.77
0.78
0.79
0.8
0.82
0.82
0.8
0.78
0.8
0.79
0.81
0.8
0.78
0.76
0.77
0.78
0.79
0.8
0.79
0.77
0.8
0.82
0.85
0.84
0.8
0.79
0.8
0.82
0.82
0.81
0.78
0.77
0.76
0.77
0.8
0.8
0.84
0.83
0.79
0.8
0.81
0.85
0.89
0.86
0.82
0.79
0.76
0.76
0.8
0.82
0.81
0.83
0.81
0.86
0.85
0.84
0.82
0.81
0.79
0.79
0.79
0.78
0.8
0.8
0.79
0.79
0.78
0.78
0.8
0.8
0.79
0.78
0.8
0.82
0.84
0.84
0.81
0.8
0.77
0.78
0.78
0.79
0.78
0.77
0.77
0.74
0.76
0.76
0.77
0.79
0.75
0.74
0.72
0.74
0.74
0.77
0.79
0.77
0.75
0.76
0.77
0.78
0.79
0.8
0.76
0.74
0.76
0.78
0.81
0.82
0.81
0.77
0.77
0.76
0.79
0.79
0.78
0.76
0.78
0.76
0.78
0.77
0.78
0.74
0.74
0.78
0.78
0.81
0.77
0.76
0.76
0.77
0.79
0.83
0.83
0.79
0.79
0.82
0.84
0.84
0.82
0.79
0.77
0.76
0.77
0.79
0.8
0.8
0.76
0.75
0.76
0.78
0.83
0.82
0.81
0.76
0.77
0.79
0.8
0.83
0.8
0.78
0.79
0.81
0.83
0.82
0.81
0.78
0.76
0.77
0.78
0.8
0.8
0.79
0.78
0.79
0.81
0.83
0.83
0.83
0.79
0.76
0.78
0.79
0.81
0.81
0.79
0.77
0.76
0.79
0.82
0.83
0.83
0.8
0.79
0.84
0.83
0.8
0.82
0.79
0.77
0.83
0.91
0.94
0.96
0.89
0.83
0.82
0.81
0.81
0.81
0.78
0.79
0.82
0.82
0.84
0.81
0.76
0.77
0.78
0.79
0.8
0.78
0.79
0.79
0.82
0.82
0.83
0.84
0.79
0.78
0.79
0.78
0.81
0.81
0.82
0.79
0.76
0.77
0.79
0.8
0.81
0.83
0.79
0.76
0.79
0.83
0.87
0.86
0.82
0.8
0.8
0.81
0.81
0.81
0.81
0.79
0.76
0.76
0.78
0.82
0.82
0.83
0.81
0.81
0.84
0.85
0.84
0.81
0.78
0.79
0.81
0.81
0.83
0.8
0.78
0.78
0.78
0.78
0.76
0.76
0.76
0.74
0.76
0.74
0.73
0.75
0.79
0.87
0.89
0.85
0.84
0.86
0.86
0.85
0.85
0.79
0.76
0.77
0.79
0.77
0.77
0.75
0.74
0.76
0.77
0.8
0.79
0.78
0.76
0.76
0.78
0.79
0.8
0.82
0.78
0.76
0.77
0.79
0.82
0.83
0.79
0.77
0.81
0.81
0.86
0.86
0.86
0.8
0.77
0.78
0.8
0.81
0.8
0.77
0.76
0.79
0.79
0.8
0.83
0.8
0.77
0.76
0.76
0.77
0.79
0.8
0.78
0.75
0.78
0.81
0.82
0.83
0.81
0.76
0.79
0.81
0.81
0.81
0.8
0.78
0.75
0.76
0.78
0.79
0.81
0.79
0.77
0.78
0.79
0.79
0.81
0.77
0.76
0.77
0.79
0.81
0.82
0.8
0.76
0.73
0.72
0.7
0.68
0.66
0.63
0.63
0.63
0.67
0.66
0.7
0.73
0.75
0.85
0.92
0.93
0.87
0.81
0.74
0.71
0.71
0.69
0.68
0.68
0.66
0.66
0.67
0.71
0.74
0.76
0.76
0.73
0.7
0.72
0.71
0.75
0.79
0.76
0.75
0.73
0.76
0.79
0.83
0.78
0.76
0.74
0.74
0.77
0.74
0.73
0.72
0.72
0.71
0.69
0.7
0.71
0.72
0.74
0.75
0.73
0.74
0.73
0.74
0.75
0.74
0.74
0.76
0.73
0.72
0.75
0.76
0.79
0.79
0.81
0.78
0.74
0.73
0.72
0.73
0.75
0.77
0.75
0.73
0.7
0.71
0.72
0.77
0.79
0.77
0.75
0.76
0.77
0.76
0.78
0.76
0.74
0.74
0.76
0.8
0.81
0.81
0.81
0.77
0.74
0.7
0.66
0.64
0.63
0.65
0.71
0.71
0.7
0.75
0.86
0.81
0.82
0.86
0.86
0.84
0.75
0.71
0.72
0.71
0.73
0.75
0.73
0.72
0.73
0.76
0.79
0.83
0.8
0.79
0.79
0.75
0.72
0.71
0.7
0.71
0.76
0.88
0.9
0.88
0.84
0.8
0.79
0.78
0.77
0.73
0.71
0.71
0.71
0.74
0.73
0.71
0.7
0.69
0.7
0.72
0.72
0.74
0.71
0.7
0.72
0.73
0.73
0.73
0.72
0.71
0.68
0.69
0.68
0.68
0.69
0.71
0.72
0.77
0.83
0.91
0.89
0.81
0.78
0.79
0.78
0.8
0.75
0.73
0.7
0.69
0.68
0.73
0.77
0.79
0.79
0.8
0.78
0.95
1.03
0.97
0.92
0.87
0.81
0.82
0.81
0.79
0.76
0.75
0.71
0.72
0.76
0.8
0.84
0.86
0.89
0.86
0.81
0.84
0.85
0.86
0.83
0.81
0.82
0.8
0.78
0.81
0.79
0.76
0.74
0.7
0.69
0.69
0.75
0.85
0.9
0.87
0.87
0.93
0.93
0.91
0.85
0.84
0.85
0.83
0.82
0.79
0.77
0.78
0.78
0.76
0.78
0.77
0.76
0.76
0.76
0.79
0.75
0.74
0.73
0.78
0.86
0.94
0.9
0.88
0.82
0.87
0.89
0.89
0.87
0.8
0.76
0.72
0.7
0.67
0.69
0.72
0.75
0.81
0.88
0.91
0.91
0.84
0.86
0.9
0.9
0.87
0.81
0.79
0.77
0.77
0.77
0.79
0.76
0.75
0.77
0.81
0.86
0.91
0.92
0.88
0.85
0.85
0.86
0.84
0.85
0.82
0.81
0.84
0.86
0.87
0.86
0.83
0.8
0.8
0.79
0.79
0.79
0.8
0.78
0.76
0.79
0.81
0.81
0.82
0.8
0.77
0.8
0.77
0.75
0.73
0.71
0.7
0.72
0.78
0.86
0.9
0.89
0.85
0.89
0.93
0.87
0.82
0.8
0.8
0.8
0.79
0.77
0.76
0.75
0.73
0.73
0.72
0.7
0.72
0.71
0.71
0.72
0.72
0.79
0.85
0.77
0.77
0.83
0.84
0.84
0.84
0.83
0.78
0.77
0.76
0.78
0.78
0.79
0.79
0.78
0.77
0.8
0.84
0.82
0.85
0.83
0.8
0.74
0.74
0.74
0.76
0.79
0.77
0.79
0.86
0.91
0.98
0.97
0.91
0.88
0.85
0.82
0.8
0.77
0.77
0.78
0.79
0.8
0.82
0.84
0.81
0.82
0.8
0.78
0.77
0.76
0.75
0.79
0.81
0.85
0.84
0.8
0.77
0.76
0.79
0.8
0.83
0.82
0.81
0.97
1.04
1
0.88
0.84
0.83
0.82
0.82
0.82
0.8
0.8
0.78
0.73
0.69
0.66
0.65
0.68
0.74
0.86
0.97
0.98
0.98
0.93
0.93
0.87
0.87
0.84
0.78
0.75
0.77
0.79
0.78
0.79
0.77
0.73
0.73
0.73
0.73
0.74
0.74
0.75
0.78
0.83
0.85
0.84
0.84
0.82
0.79
0.78
0.77
0.8
0.81
0.82
0.81
0.78
0.77
0.78
0.81
0.84
0.87
0.86
0.81
0.78
0.8
0.79
0.8
0.8
0.79
0.76
0.72
0.72
0.73
0.75
0.8
0.78
0.75
0.78
0.81
0.84
0.84
0.82
0.79
0.77
0.8
0.81
0.82
0.81
0.76
0.72
0.67
0.65
0.64
0.68
0.8
0.79
0.8
0.84
0.94
0.98
0.94
0.86
0.82
0.84
0.83
0.82
0.8
0.78
0.78
0.78
0.8
0.79
0.8
0.79
0.77
0.75
0.75
0.77
0.79
0.83
0.8
0.81
0.84
0.87
0.89
0.88
0.85
0.83
0.82
0.77
0.74
0.71
0.73
0.75
0.78
0.91
1.02
0.99
0.97
0.99
0.98
0.94
0.88
0.82
0.8
0.8
0.8
0.83
0.83
0.82
0.82
0.86
0.91
0.88
0.87
0.84
0.81
0.83
0.85
0.87
0.86
0.85
0.83
0.82
0.79
0.77
0.77
0.77
0.79
0.78
0.75
0.73
0.74
0.76
0.81
0.87
0.86
0.82
0.86
0.89
0.9
0.86
0.79
0.78
0.77
0.78
0.81
0.8
0.81
0.81
0.84
0.87
0.88
0.84
0.81
0.8
0.83
0.85
0.86
0.87
0.82
0.8
0.8
0.79
0.8
0.81
0.78
0.78
0.78
0.81
0.81
0.77
0.76
0.74
0.76
0.78
0.81
0.83
0.86
0.83
0.8
0.81
0.82
0.84
0.81
0.79
0.79
0.79
0.82
0.82
0.76
0.71
0.69
0.68
0.73
0.81
0.88
0.88
0.85
0.84
0.89
0.88
0.89
0.84
0.78
0.74
0.75
0.77
0.79
0.79
0.78
0.73
0.72
0.75
0.75
0.77
0.77
0.79
0.85
0.98
1.01
0.97
0.85
0.78
0.8
0.86
0.88
0.86
0.83
0.76
0.77
0.78
0.83
0.86
0.82
0.83
0.92
0.96
0.88
0.82
0.76
0.73
0.75
0.82
0.88
0.92
0.94
0.9
0.92
0.93
0.91
0.89
0.86
0.8
0.79
0.77
0.79
0.81
0.78
0.75
0.72
0.7
0.69
0.73
0.82
0.88
0.85
0.82
0.94
1.03
0.98
0.93
0.87
0.82
0.82
0.82
0.83
0.84
0.83
0.81
0.79
0.8
0.83
0.85
0.84
0.81
0.8
0.82
0.84
0.85
0.8
0.79
0.79
0.79
0.78
0.77
0.76
0.75
0.74
0.76
0.78
0.79
0.81
0.83
0.87
0.9
0.9
0.85
0.81
0.82
0.84
0.87
0.85
0.8
0.77
0.76
0.75
0.75
0.79
0.79
0.81
0.79
0.79
0.79
0.81
0.83
0.84
0.82
0.81
0.78
0.82
0.82
0.79
0.75
0.73
0.71
0.71
0.73
0.81
0.92
0.95
0.9
0.84
0.9
0.95
0.92
0.86
0.81
0.76
0.73
0.74
0.76
0.8
0.83
0.8
0.81
0.81
0.83
0.84
0.81
0.81
0.83
0.84
0.85
0.86
0.81
0.76
0.73
0.7
0.71
0.76
0.78
0.82
0.83
0.93
0.97
0.92
0.87
0.87
0.89
0.9
0.87
0.87
0.84
0.81
0.79
0.8
0.82
0.82
0.79
0.79
0.83
0.87
0.87
0.85
0.82
0.8
0.82
0.83
0.82
0.81
0.8
0.78
0.77
0.77
0.79
0.79
0.78
0.8
0.78
0.81
0.86
0.88
0.82
0.81
0.83
0.89
0.9
0.89
0.84
0.8
0.8
0.8
0.81
0.79
0.8
0.84
0.84
0.8
0.78
0.76
0.78
0.83
0.83
0.85
0.84
0.81
0.81
0.83
0.83
0.84
0.81
0.78
0.76
0.77
0.77
0.75
0.72
0.7
0.68
0.71
0.76
0.83
0.87
0.85
0.84
0.87
0.9
0.88
0.82
0.78
0.75
0.76
0.77
0.74
0.73
0.75
0.75
0.77
0.75
0.73
0.73
0.73
0.73
0.77
0.77
0.73
0.73
0.75
0.78
0.8
0.82
0.78
0.77
0.79
0.81
0.83
0.8
0.79
0.79
0.76
0.78
0.8
0.81
0.8
0.8
0.78
0.76
0.74
0.76
0.79
0.82
0.8
0.78
0.76
0.75
0.77
0.78
0.79
0.79
0.77
0.72
0.71
0.68
0.7
0.73
0.83
0.85
0.79
0.76
0.78
0.82
0.89
0.87
0.84
0.78
0.75
0.77
0.78
0.78
0.78
0.77
0.75
0.76
0.77
0.81
0.81
0.79
0.77
0.75
0.72
0.73
0.73
0.74
0.77
0.75
0.73
0.73
0.75
0.79
0.83
0.84
0.82
0.79
0.72
0.7
0.7
0.7
0.77
0.84
0.87
0.82
0.8
0.9
0.9
0.9
0.89
0.84
0.78
0.77
0.77
0.8
0.83
0.83
0.78
0.76
0.77
0.76
0.78
0.77
0.76
0.76
0.77
0.76
0.76
0.75
0.75
0.75
0.79
0.79
0.79
0.81
0.81
0.78
0.76
0.75
0.78
0.81
0.76
0.74
0.71
0.71
0.68
0.69
0.76
0.85
0.88
0.81
0.75
0.77
0.76
0.76
0.76
0.74
0.72
0.7
0.68
0.69
0.69
0.7
0.73
0.74
0.73
0.72
0.73
0.73
0.72
0.74
0.76
0.76
0.75
0.73
0.71
0.72
0.7
0.67
0.67
0.66
0.65
0.65
0.63
0.63
0.6
0.6
0.6
0.59
0.6
0.6
0.61
0.62
0.61
0.62
0.62
0.61
0.61
0.6
0.6
0.58
0.58
0.58
0.58
0.58
0.59
0.58
0.58
0.57
0.58
0.57
0.58
0.58
0.58
0.6
0.6
0.6
0.6
0.61
0.62
0.65
0.66
0.68
0.66
0.66
0.66
0.67
0.68
0.7
0.72
0.7
0.72
0.69
0.69
0.69
0.72
0.74
0.79
0.76
0.78
0.77
0.74
0.74
0.74
0.76
0.76
0.77
0.76
0.73
0.71
0.69
0.7
0.7
0.79
0.82
0.81
0.81
0.82
0.85
0.85
0.81
0.75
0.78
0.78
0.77
0.76
0.75
0.74
0.75
0.79
0.82
0.77
0.75
0.72
0.75
0.75
0.77
0.74
0.74
0.75
0.77
0.79
0.78
0.77
0.76
0.74
0.73
0.75
0.75
0.79
0.77
0.73
0.75
0.75
0.75
0.76
0.75
0.73
0.73
0.76
0.78
0.81
0.8
0.79
0.78
0.79
0.77
0.77
0.78
0.77
0.76
0.75
0.78
0.82
0.84
0.85
0.8
0.79
0.8
0.82
0.81
0.82
0.8
0.78
0.76
0.75
0.76
0.78
0.8
0.8
0.79
0.75
0.73
0.73
0.73
0.76
0.77
0.77
0.76
0.78
0.82
0.84
0.83
0.85
0.79
0.75
0.73
0.74
0.75
0.75
0.75
0.75
0.76
0.83
0.88
0.89
0.86
0.79
0.81
0.79
0.78
0.77
0.74
0.75
0.76
0.77
0.78
0.75
0.73
0.7
0.69
0.69
0.72
0.89
0.93
0.9
0.93
0.91
0.92
0.9
0.87
0.84
0.83
0.82
0.8
0.78
0.77
0.77
0.75
0.76
0.77
0.76
0.75
0.83
0.86
0.9
0.89
0.87
0.84
0.87
0.84
0.82
0.78
0.75
0.76
0.76
0.76
0.77
0.79
0.79
0.77
0.8
0.83
0.84
0.81
0.79
0.78
0.77
0.79
0.78
0.79
0.76
0.77
0.78
0.79
0.82
0.82
0.79
0.79
0.8
0.81
0.79
0.79
0.77
0.75
0.77
0.76
0.79
0.79
0.78
0.75
0.76
0.76
0.78
0.78
0.76
0.75
0.75
0.76
0.77
0.77
0.76
0.75
0.76
0.8
0.85
0.88
0.83
0.81
0.79
0.79
0.78
0.79
0.76
0.77
0.81
0.83
0.84
0.87
0.85
0.82
0.86
0.87
0.87
0.85
0.82
0.79
0.79
0.79
0.8
0.78
0.79
0.81
0.77
0.74
0.72
0.74
0.78
0.85
0.89
0.89
0.9
0.86
0.85
0.88
0.93
0.88
0.84
0.82
0.83
0.84
0.83
0.84
0.8
0.79
0.81
0.82
0.81
0.79
0.77
0.76
0.77
0.78
0.84
0.86
0.84
0.83
0.83
0.86
0.86
0.86
0.82
0.8
0.82
0.8
0.79
0.78
0.77
0.77
0.79
0.82
0.85
0.85
0.88
0.88
0.82
0.8
0.81
0.81
0.82
0.83
0.8
0.78
0.77
0.77
0.79
0.79
0.83
0.81
0.83
0.83
0.79
0.79
0.81
0.83
0.83
0.8
0.79
0.81
0.82
0.83
0.83
0.81
0.77
0.76
0.75
0.77
0.81
0.82
0.8
0.79
0.81
0.84
0.87
0.84
0.82
0.79
0.79
0.79
0.81
0.83
0.8
0.78
0.76
0.75
0.78
0.81
0.83
0.84
0.8
0.8
0.81
0.83
0.81
0.82
0.79
0.77
0.76
0.76
0.77
0.8
0.79
0.79
0.81
0.89
0.89
0.89
0.86
0.82
0.81
0.8
0.8
0.79
0.8
0.8
0.8
0.84
0.85
0.84
0.85
0.83
0.81
0.83
0.84
0.86
0.83
0.81
0.78
0.79
0.79
0.81
0.8
0.79
0.79
0.77
0.8
0.8
0.81
0.8
0.8
0.76
0.73
0.68
0.63
0.6
0.64
0.64
0.64
0.66
0.67
0.72
0.75
0.7
0.67
0.68
0.66
0.65
0.63
0.62
0.61
0.59
0.59
0.58
0.6
0.61
0.61
0.61
0.61
0.61
0.61
0.6
0.61
0.62
0.63
0.62
0.61
0.61
0.61
0.62
0.62
0.63
0.62
0.61
0.61
0.59
0.6
0.6
0.59
0.59
0.59
0.59
0.58
0.59
0.6
0.59
0.66
0.58
0.63
0.61
0.6
0.6
0.58
0.58
0.57
0.58
0.55
0.56
0.57
0.56
0.57
0.57
0.56
0.56
0.57
0.56
0.57
0.57
0.57
0.57
0.57
0.57
0.57
0.57
0.58
0.59
0.58
0.58
0.59
0.59
0.61
0.62
0.66
0.7
0.69
0.68
0.66
0.67
0.71
0.73
0.7
0.67
0.67
0.65
0.61
0.63
0.63
1.24
0.61
0.37
0.89
0.65
0.64
0.65
0.63
0.62
0.61
0.6
0.59
0.58
0.58
0.57
0.57
0.57
0.58
0.59
0.58
0.59
0.61
0.61
0.62
0.62
0.61
0.61
0.61
0.61
0.6
0.62
0.61
0.63
0.63
0.65
0.68
0.71
0.71
0.69
0.67
0.67
0.67
0.69
0.71
0.71
0.71
0.7
0.69
0.69
0.71
0.74
0.73
0.7
0.67
0.66
0.64
0.64
0.64
0.66
0.66
0.66
0.67
0.69
0.72
0.76
0.73
0.73
0.71
0.7
0.71
0.72
0.7
0.7
0.68
0.66
0.66
0.64
0.64
0.64
0.66
0.67
0.67
0.67
0.65
0.65
0.62
0.62
0.6
0.6
0.61
0.63
0.66
0.71
0.71
0.71
0.69
0.69
0.68
0.69
0.71
0.75
0.75
0.72
0.71
0.7
0.73
0.74
0.76
0.77
0.76
0.74
0.71
0.71
0.7
0.72
0.75
0.76
0.73
0.71
0.68
0.67
0.66
0.65
0.65
0.64
0.69
0.77
0.76
0.75
0.73
0.71
0.68
0.67
0.64
0.63
0.63
0.63
0.62
0.63
0.63
0.63
0.64
0.67
0.69
0.71
0.71
0.7
0.71
0.73
0.78
0.77
0.76
0.77
0.74
0.72
0.71
0.71
0.73
0.74
0.76
0.74
0.72
0.74
0.76
0.79
0.81
0.8
0.78
0.74
0.74
0.74
0.73
0.72
0.69
0.68
0.66
0.65
0.63
0.65
0.69
0.73
0.73
0.74
0.73
0.77
0.8
0.79
0.79
0.74
0.72
0.71
0.72
0.75
0.76
0.76
0.77
0.73
0.72
0.74
0.78
0.86
0.83
0.82
0.8
0.75
0.72
0.71
0.69
0.7
0.69
0.69
0.68
0.71
0.75
0.74
0.72
0.73
0.7
0.68
0.67
0.65
0.65
0.64
0.65
0.64
0.64
0.65
0.67
0.69
0.69
0.66
0.66
0.65
0.65
0.69
0.72
0.73
0.74
0.72
0.73
0.77
0.78
0.81
0.79
0.76
0.72
0.71
0.71
0.72
0.74
0.76
0.74
0.72
0.73
0.76
0.77
0.77
0.78
0.77
0.73
0.71
0.72
0.74
0.77
0.77
0.77
0.74
0.73
0.72
0.7
0.69
0.68
0.66
0.65
0.64
0.63
0.63
0.63
0.68
0.71
0.74
0.7
0.68
0.66
0.65
0.64
0.64
0.63
0.62
0.64
0.64
0.67
0.66
0.64
0.63
0.63
0.63
0.62
0.62
0.62
0.62
0.62
0.61
0.63
0.64
0.67
0.68
0.67
0.67
0.7
0.74
0.78
0.79
0.77
0.74
0.72
0.73
0.72
0.74
0.74
0.72
0.72
0.72
0.74
0.76
0.76
0.78
0.75
0.73
0.75
0.75
0.78
0.77
0.77
0.76
0.75
0.75
0.76
0.78
0.79
0.79
0.77
0.76
0.76
0.76
0.76
0.75
0.75
0.75
0.8
0.83
0.84
0.81
0.79
0.79
0.81
0.81
0.79
0.78
0.76
0.73
0.73
0.74
0.75
0.78
0.78
0.79
0.77
0.76
0.78
0.79
0.8
0.8
0.79
0.75
0.77
0.77
0.8
0.78
0.77
0.76
0.74
0.75
0.74
0.74
0.76
0.77
0.76
0.75
0.77
0.77
0.78
0.79
0.76
0.76
0.77
0.77
0.79
0.79
0.79
0.77
0.77
0.77
0.76
0.76
0.77
0.77
0.76
0.75
0.78
0.77
0.78
0.78
0.78
0.77
0.75
0.73
0.73
0.73
0.72
0.72
0.69
0.68
0.65
0.67
0.7
0.73
0.7
0.68
0.67
0.67
0.66
0.66
0.64
0.66
0.66
0.68
0.69
0.69
0.68
0.67
0.67
0.69
0.72
0.74
0.76
0.74
0.73
0.71
0.7
0.72
0.74
0.73
0.73
0.75
0.76
0.78
0.79
0.76
0.74
0.74
0.72
0.75
0.76
0.77
0.73
0.73
0.74
0.73
0.75
0.75
0.75
0.74
0.73
0.73
0.72
0.79
0.82
0.79
0.77
0.76
0.77
0.78
0.81
0.81
0.76
0.75
0.77
0.77
0.79
0.78
0.77
0.76
0.74
0.75
0.75
0.77
0.77
0.76
0.73
0.77
0.81
0.9
0.93
0.88
0.82
0.79
0.77
0.79
0.82
0.81
0.81
0.79
0.78
0.81
0.83
0.85
0.84
0.82
0.81
0.8
0.79
0.8
0.76
0.76
0.79
0.81
0.82
0.81
0.81
0.81
0.8
0.8
0.81
0.81
0.82
0.81
0.77
0.76
0.76
0.77
0.77
0.79
0.78
0.77
0.76
0.77
0.79
0.79
0.79
0.77
0.76
0.76
0.76
0.77
0.75
0.74
0.72
0.71
0.71
0.75
0.82
0.85
0.79
0.79
0.84
0.79
0.75
0.74
0.74
0.75
0.75
0.73
0.71
0.71
0.73
0.74
0.75
0.72
0.72
0.74
0.74
0.77
0.79
0.78
0.79
0.75
0.74
0.76
0.77
0.83
0.84
0.84
0.82
0.8
0.76
0.78
0.79
0.79
0.81
0.75
0.73
0.73
0.78
0.87
0.91
0.91
0.86
0.81
0.8
0.79
0.77
0.74
0.72
0.74
0.73
0.76
0.81
0.82
0.78
0.82
0.85
0.89
0.91
0.87
0.8
0.77
0.77
0.81
0.81
0.8
0.76
0.76
0.76
0.78
0.81
0.81
0.79
0.77
0.78
0.82
0.88
0.87
0.85
0.8
0.75
0.72
0.74
0.78
0.85
0.93
0.93
0.88
0.83
0.82
0.81
0.8
0.81
0.81
0.77
0.75
0.76
0.78
0.78
0.8
0.8
0.75
0.73
0.73
0.76
0.79
0.79
0.77
0.75
0.76
0.78
0.79
0.81
0.81
0.79
0.77
0.76
0.76
0.78
0.77
0.78
0.76
0.74
0.76
0.77
0.79
0.78
0.76
0.75
0.73
0.75
0.76
0.79
0.78
0.75
0.75
0.75
0.76
0.79
0.77
0.75
0.73
0.72
0.73
0.79
0.85
0.88
0.87
0.82
0.77
0.76
0.79
0.8
0.82
0.81
0.77
0.78
0.79
0.82
0.81
0.79
0.78
0.78
0.77
0.78
0.78
0.78
0.75
0.76
0.79
0.86
0.89
0.91
0.85
0.8
0.79
0.79
0.81
0.79
0.76
0.75
0.76
0.78
0.8
0.8
0.8
0.78
0.8
0.81
0.81
0.8
0.78
0.76
0.77
0.81
0.85
0.82
0.78
0.75
0.73
0.73
0.74
0.84
0.89
0.86
0.82
0.86
0.86
0.85
0.82
0.77
0.75
0.73
0.69
0.66
0.65
0.67
0.66
0.66
0.66
0.66
0.67
0.71
0.72
0.74
0.74
0.72
0.7
0.71
0.71
0.74
0.76
0.77
0.74
0.72
0.74
0.75
0.76
0.79
0.79
0.78
0.77
0.75
0.74
0.76
0.77
0.8
0.83
0.84
0.81
0.77
0.77
0.79
0.81
0.82
0.79
0.77
0.8
0.77
0.78
0.79
0.76
0.77
0.77
0.81
0.87
0.93
0.89
0.84
0.83
0.81
0.8
0.78
0.75
0.73
0.75
0.75
0.78
0.78
0.79
0.76
0.76
0.78
0.82
0.82
0.85
0.82
0.79
0.75
0.77
0.78
0.79
0.8
0.8
0.76
0.76
0.78
0.8
0.82
0.8
0.76
0.75
0.75
0.77
0.79
0.79
0.77
0.74
0.78
0.79
0.81
0.79
0.76
0.75
0.76
0.78
0.78
0.78
0.76
0.74
0.75
0.76
0.79
0.79
0.77
0.75
0.75
0.77
0.78
0.81
0.83
0.77
0.74
0.73
0.73
0.72
0.71
0.69
0.71
0.72
0.71
0.7
0.72
0.73
0.75
0.75
0.75
0.74
0.71
0.7
0.69
0.71
0.71
0.72
0.72
0.7
0.71
0.71
0.72
0.73
0.71
0.69
0.68
0.68
0.68
0.71
0.72
0.73
0.69
0.66
0.66
0.64
0.66
0.67
0.68
0.68
0.67
0.66
0.65
0.65
0.63
0.63
0.63
0.64
0.64
0.62
0.63
0.62
0.61
0.6
0.61
0.6
0.6
0.61
0.62
0.62
0.63
0.63
0.65
0.66
0.7
0.7
0.7
0.71
0.74
0.78
0.78
0.81
0.78
0.75
0.72
0.74
0.76
0.81
0.82
0.8
0.75
0.75
0.72
0.74
0.78
0.79
0.76
0.74
0.71
0.72
0.75
0.82
0.85
0.85
0.79
0.75
0.73
0.75
0.77
0.8
0.79
0.78
0.74
0.74
0.76
0.81
0.87
0.8
0.79
0.74
0.72
0.73
0.75
0.83
0.87
0.87
0.84
0.81
0.85
0.86
0.87
0.84
0.8
0.76
0.75
0.76
0.79
0.77
0.76
0.77
0.8
0.8
0.81
0.82
0.79
0.75
0.73
0.75
0.8
0.88
0.85
0.82
0.81
0.84
0.86
0.86
0.82
0.78
0.76
0.76
0.79
0.81
0.82
0.8
0.8
0.76
0.74
0.76
0.77
0.82
0.8
0.79
0.78
0.76
0.78
0.8
0.8
0.76
0.75
0.73
0.73
0.72
0.74
0.74
0.76
0.79
0.88
0.94
0.94
0.86
0.82
0.82
0.81
0.8
0.79
0.76
0.76
0.76
0.77
0.77
0.78
0.76
0.75
0.77
0.77
0.76
0.77
0.77
0.74
0.74
0.74
0.76
0.77
0.78
0.8
0.77
0.76
0.77
0.78
0.79
0.81
0.8
0.78
0.77
0.79
0.78
0.77
0.75
0.75
0.76
0.77
0.81
0.86
0.85
0.8
0.79
0.83
0.81
0.81
0.77
0.77
0.77
0.77
0.79
0.79
0.77
0.77
0.79
0.81
0.81
0.81
0.79
0.78
0.79
0.8
0.81
0.8
0.79
0.77
0.77
0.77
0.77
0.79
0.8
0.77
0.78
0.8
0.82
0.83
0.85
0.85
0.8
0.79
0.79
0.77
0.75
0.73
0.72
0.72
0.71
0.69
0.69
0.71
0.79
0.81
0.78
0.78
0.83
0.85
0.85
0.85
0.8
0.77
0.78
0.75
0.76
0.75
0.74
0.72
0.72
0.73
0.74
0.77
0.77
0.77
0.75
0.74
0.77
0.77
0.78
0.8
0.77
0.76
0.73
0.75
0.8
0.85
0.81
0.79
0.77
0.78
0.78
0.78
0.78
0.78
0.75
0.74
0.72
0.73
0.72
0.74
0.72
0.73
0.73
0.77
0.86
0.86
0.84
0.79
0.75
0.76
0.77
0.78
0.76
0.74
0.73
0.75
0.78
0.81
0.8
0.79
0.75
0.73
0.73
0.77
0.8
0.81
0.79
0.77
0.76
0.78
0.77
0.81
0.84
0.79
0.77
0.76
0.77
0.8
0.79
0.8
0.76
0.77
0.78
0.81
0.8
0.8
0.8
0.77
0.74
0.75
0.78
0.81
0.83
0.81
0.78
0.75
0.76
0.76
0.8
0.82
0.76
0.74
0.76
0.77
0.82
0.83
0.8
0.79
0.77
0.79
0.82
0.83
0.8
0.78
0.76
0.75
0.77
0.78
0.81
0.78
0.76
0.75
0.75
0.76
0.77
0.78
0.75
0.74
0.72
0.72
0.74
0.76
0.76
0.76
0.76
0.76
0.75
0.79
0.85
0.87
0.85
0.8
0.78
0.77
0.79
0.81
0.81
0.78
0.76
0.76
0.77
0.78
0.81
0.8
0.78
0.75
0.77
0.77
0.79
0.78
0.76
0.76
0.76
0.78
0.78
0.75
0.74
0.76
0.79
0.82
0.84
0.78
0.78
0.82
0.86
0.89
0.89
0.81
0.78
0.77
0.78
0.82
0.8
0.76
0.74
0.77
0.8
0.82
0.83
0.79
0.77
0.79
0.79
0.82
0.81
0.8
0.75
0.73
0.71
0.72
0.78
0.85
0.82
0.83
0.9
1
1.02
0.92
0.85
0.83
0.82
0.83
0.81
0.78
0.78
0.78
0.78
0.8
0.8
0.78
0.76
0.75
0.75
0.78
0.85
0.9
0.92
0.91
0.88
0.9
0.9
0.9
0.88
0.86
0.81
0.79
0.8
0.81
0.81
0.79
0.78
0.78
0.79
0.8
0.8
0.81
0.79
0.78
0.79
0.79
0.79
0.82
0.82
0.79
0.77
0.79
0.81
0.82
0.82
0.79
0.77
0.79
0.78
0.79
0.8
0.8
0.78
0.8
0.78
0.75
0.72
0.71
0.74
0.87
1.17
0.87
0.86
0.82
0.71
0.88
0.91
0.88
0.82
0.8
0.8
0.8
0.8
0.78
0.77
0.75
0.76
0.77
0.77
0.8
0.79
0.76
0.78
0.8
0.81
0.84
0.81
0.81
0.81
0.82
0.81
0.82
0.81
0.79
0.77
0.78
0.79
0.81
0.83
0.82
0.79
0.79
0.8
0.82
0.84
0.82
0.8
0.79
0.76
0.76
0.76
0.74
0.73
0.8
0.88
0.81
0.8
0.89
0.94
0.93
0.85
0.82
0.83
0.83
0.83
0.8
0.79
0.8
0.79
0.81
0.79
0.78
0.77
0.79
0.79
0.81
0.83
0.82
0.8
0.8
0.82
0.83
0.84
0.83
0.8
0.79
0.8
0.78
0.79
0.8
0.76
0.77
0.77
0.79
0.8
0.82
0.8
0.79
0.8
0.82
0.83
0.82
0.78
0.77
0.76
0.74
0.72
0.78
0.8
0.86
0.93
1.01
1.01
0.92
0.89
0.87
0.86
0.84
0.81
0.78
0.77
0.76
0.78
0.78
0.8
0.82
0.79
0.8
0.81
0.82
0.82
0.81
0.8
0.8
0.8
0.8
0.79
0.8
0.78
0.78
0.78
0.8
0.78
0.77
0.77
0.79
0.81
0.82
0.8
0.79
0.78
0.8
0.77
0.77
0.76
0.76
0.76
0.76
0.74
0.74
0.76
0.79
0.82
0.83
0.81
0.79
0.78
0.79
0.8
0.81
0.8
0.78
0.76
0.76
0.77
0.79
0.81
0.81
0.79
0.84
0.86
0.93
0.92
0.89
0.86
0.85
0.86
0.84
0.83
0.8
0.78
0.79
0.79
0.81
0.81
0.8
0.8
0.78
0.78
0.79
0.8
0.8
0.78
0.77
0.76
0.78
0.76
0.78
0.76
0.76
0.77
0.78
0.83
0.82
0.78
0.78
0.8
0.81
0.81
0.81
0.78
0.76
0.78
0.78
0.79
0.8
0.79
0.77
0.77
0.79
0.79
0.81
0.81
0.81
0.76
0.77
0.76
0.78
0.81
0.78
0.79
0.84
0.9
0.94
0.93
0.88
0.84
0.84
0.83
0.83
0.82
0.81
0.79
0.78
0.78
0.78
0.79
0.8
0.83
0.87
0.94
0.95
0.92
0.87
0.83
0.83
0.82
0.81
0.8
0.8
0.77
0.77
0.78
0.8
0.82
0.82
0.79
0.79
0.79
0.79
0.79
0.78
0.8
0.82
0.85
0.83
0.83
0.8
0.83
0.83
0.82
0.82
0.79
0.78
0.8
0.82
0.82
0.81
0.81
0.79
0.79
0.79
0.8
0.82
0.82
0.79
0.79
0.79
0.78
0.8
0.8
0.79
0.78
0.81
0.87
0.89
0.89
0.84
0.82
0.84
0.85
0.85
0.83
0.8
0.78
0.79
0.78
0.8
0.78
0.77
0.76
0.77
0.78
0.79
0.78
0.79
0.81
0.81
0.8
0.8
0.78
0.77
0.76
0.77
0.79
0.8
0.79
0.79
0.82
0.84
0.86
0.85
0.84
0.82
0.82
0.81
0.79
0.78
0.78
0.79
0.81
0.82
0.79
0.79
0.8
0.84
0.83
0.82
0.8
0.8
0.79
0.81
0.82
0.8
0.78
0.77
0.77
0.79
0.79
0.82
0.83
0.8
0.81
0.81
0.82
0.82
0.83
0.8
0.8
0.8
0.79
0.77
0.78
0.78
0.78
0.79
0.85
0.89
0.94
0.91
0.87
0.84
0.85
0.85
0.83
0.83
0.79
0.78
0.76
0.75
0.75
0.75
0.72
0.71
0.71
0.71
0.74
0.77
0.81
0.81
0.8
0.82
0.85
0.84
0.82
0.79
0.77
0.76
0.77
0.76
0.8
0.77
0.76
0.75
0.78
0.81
0.87
0.89
0.87
0.81
0.8
0.79
0.79
0.8
0.81
0.78
0.77
0.79
0.75
0.73
0.73
0.71
0.76
0.94
1.04
1.06
1.02
0.94
0.94
0.97
0.93
0.88
0.84
0.83
0.82
0.81
0.82
0.79
0.79
0.77
0.78
0.78
0.79
0.79
0.77
0.75
0.77
0.78
0.79
0.81
0.79
0.77
0.79
0.82
0.82
0.82
0.78
0.77
0.75
0.75
0.81
0.88
0.93
0.91
0.9
0.92
0.94
0.9
0.84
0.79
0.77
0.77
0.82
0.82
0.79
0.78
0.78
0.8
0.78
0.78
0.76
0.78
0.79
0.88
0.99
1.04
0.95
0.89
0.9
0.89
0.88
0.86
0.83
0.81
0.81
0.81
0.82
0.81
0.81
0.78
0.82
0.82
0.83
0.85
0.83
0.8
0.8
0.83
0.81
0.84
0.84
0.81
0.8
0.82
0.82
0.83
0.79
0.78
0.77
0.75
0.74
0.72
0.74
0.79
0.8
0.8
0.86
0.91
0.95
0.88
0.86
0.87
0.86
0.84
0.81
0.79
0.76
0.76
0.75
0.76
0.83
0.8
0.81
0.81
0.87
0.92
0.88
0.85
0.84
0.84
0.85
0.84
0.81
0.78
0.76
0.76
0.77
0.79
0.81
0.79
0.76
0.78
0.78
0.81
0.84
0.89
0.91
0.87
0.94
0.97
0.9
0.86
0.84
0.81
0.77
0.75
0.73
0.75
0.74
0.74
0.73
0.74
0.75
0.75
0.75
0.72
0.72
0.73
0.72
0.75
0.75
0.74
0.73
0.72
0.73
0.76
0.77
0.76
0.76
0.78
0.79
0.79
0.77
0.75
0.76
0.75
0.76
0.76
0.73
0.72
0.71
0.7
0.7
0.69
0.69
0.68
0.68
0.68
0.69
0.7
0.72
0.73
0.72
0.7
0.7
0.68
0.67
0.67
0.67
0.66
0.66
0.67
0.69
0.79
0.9
0.93
0.95
0.88
0.88
0.91
0.89
0.85
0.83
0.81
0.8
0.78
0.77
0.77
0.77
0.79
0.8
0.78
0.75
0.79
0.76
0.76
0.74
0.74
0.74
0.75
0.76
0.75
0.72
0.74
0.74
0.76
0.77
0.78
0.8
0.78
0.77
0.77
0.75
0.76
0.75
0.72
0.72
0.71
0.71
0.72
0.73
0.71
0.72
0.73
0.74
0.75
0.77
0.78
0.78
0.77
0.79
0.78
0.77
0.76
0.75
0.75
0.77
0.78
0.76
0.78
0.79
0.8
0.79
0.77
0.75
0.75
0.73
0.73
0.71
0.71
0.7
0.72
0.76
0.78
0.78
0.78
0.74
0.76
0.76
0.74
0.75
0.72
0.71
0.69
0.69
0.68
0.68
0.69
0.7
0.7
0.69
0.69
0.7
0.7
0.7
0.71
0.74
0.75
0.83
0.89
0.86
0.83
0.8
0.77
0.78
0.8
0.89
0.97
0.86
0.8
0.79
0.81
0.86
0.92
0.88
0.87
0.91
1
0.98
0.92
0.87
0.84
0.83
0.78
0.76
0.8
0.79
0.87
0.82
0.78
0.77
0.77
0.76
0.75
0.74
0.73
0.74
0.75
0.8
0.84
0.84
0.81
0.83
0.85
0.8
0.79
0.78
0.78
0.78
0.76
0.74
0.75
0.75
0.77
0.78
0.79
0.78
0.81
0.83
0.84
0.89
0.84
0.85
0.82
0.79
0.76
0.75
0.76
0.85
0.84
0.81
0.79
0.8
0.81
0.79
0.75
0.73
0.71
0.7
0.69
0.71
0.7
0.72
0.76
0.76
0.8
0.76
0.76
0.75
0.76
0.77
0.73
0.74
0.72
0.74
0.75
0.74
0.73
0.72
0.72
0.71
0.72
0.73
0.74
0.73
0.74
0.78
0.81
0.82
0.9
0.86
0.82
0.84
0.84
0.88
0.82
0.88
0.84
0.79
0.78
0.77
0.76
0.77
0.75
0.73
0.74
0.74
0.77
0.74
0.72
0.7
0.69
0.7
0.72
0.83
0.8
0.79
0.85
0.97
1.11
0.98
0.92
0.89
0.87
0.86
0.85
0.83
0.84
0.83
0.82
0.81
0.8
0.81
0.82
0.84
0.84
0.83
0.81
0.83
0.83
0.81
0.8
0.79
0.8
0.8
0.8
0.8
0.79
0.8
0.81
0.82
0.81
0.81
0.8
0.81
0.81
0.81
0.79
0.79
0.79
0.78
0.79
0.78
0.78
0.76
0.77
0.75
0.75
0.72
0.72
0.74
0.78
0.87
0.88
0.85
0.86
0.86
0.84
0.81
0.8
0.77
0.76
0.71
0.71
0.71
0.73
0.77
0.81
0.75
0.75
0.77
0.74
0.71
0.7
0.68
0.67
0.69
0.79
0.88
0.82
0.8
0.82
0.84
0.89
0.84
0.8
0.77
0.78
0.77
0.8
0.78
0.75
0.73
0.76
0.81
0.91
1
0.96
0.97
0.93
0.9
0.87
0.83
0.85
0.85
0.83
0.82
0.82
0.82
0.84
0.83
0.82
0.82
0.83
0.83
0.83
0.82
0.82
0.82
0.82
0.8
0.79
0.8
0.8
0.81
0.79
0.79
0.79
0.78
0.79
0.78
0.79
0.81
0.82
0.83
0.82
0.83
0.83
0.84
0.84
0.83
0.84
0.83
0.83
0.84
0.82
0.79
0.81
0.8
0.81
0.84
0.86
0.85
0.91
0.92
0.9
0.87
0.85
0.81
0.8
0.78
0.77
0.78
0.76
0.77
0.74
0.74
0.75
0.76
0.79
0.8
0.74
0.76
0.75
0.73
0.72
0.7
0.7
0.7
0.71
0.77
0.81
0.93
0.9
0.86
0.92
1.05
1.05
0.93
0.87
0.87
0.86
0.87
0.88
0.84
0.83
0.85
0.85
0.88
0.86
0.83
0.83
0.83
0.83
0.84
0.83
0.81
0.81
0.83
0.87
0.88
0.86
0.83
0.85
0.83
0.83
0.82
0.84
0.83
0.84
0.82
0.81
0.84
0.84
0.85
0.82
0.82
0.83
0.82
0.82
0.8
0.79
0.81
0.82
0.87
0.87
0.84
0.82
0.82
0.82
0.82
0.8
0.81
0.79
0.79
0.77
0.76
0.76
0.75
0.74
0.72
0.71
0.7
0.72
0.71
0.7
0.68
0.66
0.66
0.64
0.64
0.65
0.66
0.68
0.67
0.68
0.7
0.71
0.71
0.73
0.73
0.73
0.73
0.74
0.74
0.78
0.82
0.82
0.82
0.86
0.88
0.87
0.84
0.8
0.81
0.84
0.82
0.79
0.79
0.85
0.88
0.92
0.92
0.85
0.81
0.8
0.79
0.8
0.8
0.76
0.75
0.75
0.76
0.82
0.84
0.87
0.82
0.83
0.88
0.9
0.87
0.83
0.81
0.81
0.84
0.87
0.88
0.84
0.81
0.86
0.92
0.95
0.95
0.92
0.86
0.85
0.93
0.92
0.83
0.87
1.07
1
0.87
0.84
0.82
0.8
0.78
0.76
0.79
0.82
0.89
0.85
0.85
0.91
0.92
0.9
0.86
0.86
0.83
0.8
0.78
0.77
0.77
0.76
0.76
0.77
0.77
0.8
0.85
0.87
0.87
0.87
0.88
0.88
0.87
0.85
0.87
0.85
0.84
0.82
0.82
0.8
0.81
0.79
0.79
0.79
0.79
0.8
0.79
0.8
0.83
0.84
0.83
0.81
0.81
0.82
0.81
0.82
0.82
0.83
0.84
0.84
0.82
0.81
0.82
0.8
0.79
0.78
0.77
0.77
0.79
0.79
0.81
0.81
0.8
0.8
0.8
0.78
0.76
0.73
0.68
0.66
0.65
0.63
0.64
0.65
0.68
0.68
0.71
0.77
0.65
0.82
0.71
0.7
0.69
0.68
0.7
0.73
0.72
0.71
0.72
0.74
0.77
0.79
0.8
0.83
0.87
0.85
0.82
0.93
1.05
0.95
0.98
0.92
0.92
0.92
0.92
0.95
0.88
0.83
0.82
0.8
0.81
0.86
0.87
0.84
0.83
0.81
0.83
0.84
0.84
0.84
0.83
0.82
0.8
0.8
0.82
0.85
0.9
0.88
0.85
0.88
0.88
0.89
0.84
0.83
0.82
0.82
0.82
0.82
0.81
0.81
0.8
0.82
0.84
0.82
0.82
0.81
0.79
0.8
0.79
0.77
0.76
0.75
0.77
0.77
0.81
0.87
0.91
0.89
0.95
0.94
0.94
0.92
0.87
0.84
0.84
0.84
0.85
0.82
0.81
0.82
0.81
0.8
0.79
0.77
0.77
0.79
0.79
0.85
0.82
0.84
0.83
0.84
0.86
0.84
0.83
0.82
0.81
0.8
0.79
0.8
0.8
0.82
0.8
0.8
0.8
0.82
0.82
0.83
0.84
0.87
0.89
0.89
0.88
0.84
0.84
0.83
0.82
0.79
0.77
0.76
0.75
0.72
0.74
0.77
0.76
0.75
0.79
0.82
0.83
0.8
0.77
0.74
0.73
0.7
0.68
0.67
0.67
0.65
0.66
0.66
0.66
0.71
0.78
0.81
0.77
0.78
0.86
0.9
0.9
0.9
0.87
0.84
0.79
0.77
0.79
0.8
0.79
0.81
0.81
0.8
0.79
0.8
0.82
0.83
0.83
0.82
0.82
0.79
0.78
0.78
0.82
0.88
0.89
0.86
0.81
0.78
0.8
0.78
0.79
0.8
0.79
0.77
0.76
0.77
0.8
0.83
0.84
0.83
0.8
0.78
0.79
0.79
0.81
0.8
0.81
0.8
0.79
0.76
0.76
0.77
0.78
0.82
0.81
0.79
0.77
0.8
0.8
0.83
0.83
0.84
0.8
0.78
0.78
0.78
0.8
0.79
0.79
0.77
0.76
0.74
0.73
0.74
0.74
0.78
0.8
0.81
0.81
0.82
0.86
0.9
0.85
0.85
0.82
0.78
0.77
0.77
0.78
0.79
0.8
0.78
0.77
0.78
0.79
0.8
0.81
0.81
0.8
0.81
0.8
0.81
0.8
0.79
0.77
0.78
0.75
0.76
0.76
0.77
0.79
0.78
0.87
0.88
0.89
0.88
0.88
0.84
0.81
0.77
0.75
0.7
0.69
0.68
0.67
0.67
0.69
0.7
0.71
0.68
0.74
0.72
0.76
0.79
0.82
0.82
0.79
0.74
0.72
0.7
0.68
0.66
0.67
0.66
0.65
0.63
0.63
0.61
0.61
0.59
0.59
0.58
0.57
0.58
0.57
0.59
0.6
0.6
0.63
0.66
0.77
0.76
0.75
0.72
0.7
0.7
0.7
0.71
0.72
0.75
0.73
0.74
0.77
0.8
0.83
0.84
0.86
0.81
0.78
0.8
0.81
0.83
0.85
0.85
0.81
0.8
0.82
0.86
0.89
0.92
0.89
0.85
0.81
0.79
0.79
0.82
0.84
0.85
0.82
0.79
0.8
0.8
0.79
0.78
0.76
0.77
0.77
0.78
0.79
0.79
0.8
0.81
0.78
0.77
0.77
0.76
0.78
0.79
0.76
0.78
0.79
0.81
0.82
0.82
0.79
0.78
0.79
0.79
0.8
0.8
0.8
0.78
0.8
0.8
0.82
0.82
0.83
0.8
0.79
0.8
0.8
0.81
0.82
0.82
0.81
0.79
0.8
0.79
0.78
0.79
0.81
0.79
0.78
0.81
0.82
0.85
0.85
0.84
0.81
0.8
0.81
0.81
0.8
0.78
0.78
0.79
0.8
0.79
0.8
0.81
0.79
0.79
0.82
0.82
0.84
0.83
0.83
0.82
0.82
0.83
0.83
0.83
0.85
0.81
0.79
0.79
0.8
0.81
0.82
0.8
0.8
0.78
0.78
0.79
0.81
0.83
0.84
0.84
0.82
0.83
0.83
0.84
0.83
0.81
0.78
0.77
0.77
0.79
0.83
0.85
0.83
0.83
0.9
0.92
0.94
0.91
0.86
0.84
0.83
0.81
0.82
0.81
0.79
0.76
0.77
0.79
0.83
0.83
0.85
0.83
0.8
0.82
0.83
0.83
0.85
0.85
0.83
0.8
0.79
0.79
0.78
0.78
0.78
0.78
0.78
0.84
0.86
0.88
0.89
0.85
0.82
0.82
0.83
0.84
0.84
0.8
0.8
0.81
0.81
0.83
0.81
0.79
0.82
0.86
0.87
0.88
0.85
0.83
0.85
0.86
0.86
0.84
0.81
0.81
0.8
0.81
0.82
0.83
0.79
0.79
0.81
0.82
0.82
0.85
0.83
0.8
0.78
0.76
0.79
0.81
0.88
0.9
0.88
0.93
1.04
1.01
0.96
0.91
0.84
0.82
0.8
0.8
0.8
0.79
0.78
0.78
0.79
0.81
0.85
0.83
0.82
0.84
0.85
0.86
0.87
0.83
0.82
0.82
0.82
0.81
0.82
0.82
0.81
0.8
0.83
0.82
0.83
0.83
0.81
0.79
0.81
0.83
0.88
0.89
0.9
0.85
0.83
0.85
0.86
0.89
0.86
0.83
0.79
0.77
0.76
0.82
1.01
0.97
1.01
0.95
0.94
1.05
1.02
0.94
0.87
0.86
0.84
0.84
0.83
0.8
0.8
0.8
0.79
0.8
0.79
0.81
0.82
0.84
0.83
0.84
0.8
0.8
0.79
0.79
0.78
0.78
0.77
0.78
0.82
0.86
0.88
0.91
0.93
0.89
0.89
0.91
0.91
0.89
0.88
0.84
0.82
0.83
0.83
0.84
0.86
0.85
0.82
0.81
0.84
0.88
0.87
0.87
0.82
0.81
0.82
0.83
0.86
0.89
0.83
0.84
0.89
0.92
0.92
0.87
0.83
0.84
0.83
0.83
0.82
0.79
0.77
0.79
0.81
0.81
0.84
0.82
0.81
0.88
0.95
0.92
0.94
0.9
0.84
0.84
0.84
0.82
0.82
0.8
0.8
0.81
0.83
0.89
0.86
0.84
0.88
0.91
0.91
0.91
0.86
0.82
0.84
0.83
0.82
0.82
0.8
0.79
0.81
0.85
0.85
0.85
0.83
0.8
0.82
0.85
0.84
0.82
0.8
0.82
0.82
0.83
0.83
0.81
0.81
0.82
0.84
0.85
0.85
0.86
0.86
0.82
0.82
0.83
0.86
0.85
0.87
0.85
0.82
0.8
0.83
0.84
0.84
0.85
0.84
0.81
0.79
0.81
0.81
0.82
0.8
0.8
0.81
0.82
0.84
0.84
0.79
0.8
0.8
0.82
0.83
0.85
0.84
0.8
0.79
0.8
0.8
0.8
0.82
0.8
0.78
0.81
0.82
0.82
0.81
0.81
0.82
0.83
0.82
0.82
0.79
0.78
0.79
0.79
0.8
0.82
0.82
0.84
0.82
0.8
0.82
0.84
0.84
0.84
0.82
0.8
0.78
0.8
0.79
0.8
0.8
0.79
0.8
0.84
0.9
0.98
0.95
0.89
0.9
0.91
0.9
0.86
0.85
0.82
0.8
0.8
0.81
0.8
0.8
0.8
0.78
0.78
0.81
0.82
0.82
0.8
0.79
0.79
0.8
0.81
0.79
0.78
0.81
0.82
0.83
0.83
0.8
0.82
0.82
0.83
0.83
0.81
0.77
0.78
0.77
0.79
0.81
0.83
0.83
0.83
0.81
0.86
0.88
0.89
0.87
0.84
0.82
0.81
0.82
0.82
0.84
0.82
0.8
0.82
0.84
0.86
0.88
0.88
0.83
0.82
0.83
0.85
0.88
0.86
0.83
0.83
0.87
0.88
0.89
0.84
0.82
0.83
0.84
0.84
0.84
0.82
0.8
0.81
0.83
0.85
0.83
0.83
0.81
0.78
0.79
0.79
0.82
0.84
0.81
0.81
0.85
0.86
0.85
0.85
0.82
0.79
0.8
0.78
0.79
0.79
0.8
0.82
0.79
0.83
0.9
0.93
0.94
0.91
0.84
0.84
0.86
0.88
0.89
0.88
0.83
0.81
0.81
0.81
0.81
0.79
0.81
0.82
0.83
0.82
0.82
0.79
0.78
0.79
0.79
0.8
0.8
0.81
0.8
0.8
0.82
0.86
0.84
0.86
0.83
0.81
0.84
0.84
0.86
0.87
0.82
0.81
0.84
0.84
0.86
0.86
0.84
0.81
0.83
0.84
0.86
0.84
0.79
0.8
0.8
0.81
0.83
0.82
0.81
0.8
0.81
0.81
0.82
0.8
0.79
0.81
0.82
0.83
0.85
0.84
0.82
0.8
0.82
0.82
0.82
0.81
0.79
0.8
0.81
0.82
0.81
0.79
0.79
0.8
0.8
0.81
0.79
0.79
0.8
0.82
0.83
0.83
0.83
0.81
0.79
0.8
0.82
0.82
0.81
0.79
0.81
0.82
0.83
0.82
0.8
0.81
0.82
0.83
0.82
0.8
0.8
0.81
0.82
0.83
0.83
0.8
0.8
0.82
0.84
0.86
0.86
0.82
0.81
0.83
0.84
0.85
0.85
0.83
0.8
0.8
0.8
0.81
0.83
0.83
0.8
0.8
0.82
0.83
0.85
0.85
0.82
0.8
0.81
0.82
0.79
0.81
0.81
0.8
0.82
0.91
0.95
0.96
0.96
0.89
0.88
0.9
0.9
0.9
0.86
0.82
0.82
0.82
0.82
0.83
0.83
0.82
0.81
0.81
0.81
0.84
0.83
0.81
0.82
0.81
0.8
0.8
0.79
0.81
0.87
0.9
0.95
0.95
0.91
0.87
0.9
0.87
0.84
0.84
0.85
0.85
0.84
0.82
0.81
0.79
0.81
0.83
0.86
0.87
0.84
0.82
0.86
0.88
0.88
0.86
0.84
0.81
0.81
0.81
0.82
0.85
0.87
0.86
0.85
0.89
0.97
0.97
0.96
0.93
0.88
0.84
0.84
0.85
0.86
0.84
0.83
0.86
0.89
0.87
0.84
0.85
0.86
0.87
0.88
0.87
0.82
0.8
0.81
0.82
0.83
0.83
0.83
0.85
0.88
0.9
0.85
0.88
0.87
0.87
0.87
0.82
0.82
0.83
0.87
0.87
0.84
0.81
0.84
0.87
0.87
0.88
0.87
0.83
0.82
0.83
0.82
0.82
0.8
0.79
0.8
0.81
0.84
0.87
0.87
0.83
0.81
0.84
0.85
0.84
0.83
0.8
0.8
0.8
0.81
0.82
0.82
0.8
0.78
0.8
0.81
0.84
0.85
0.82
0.81
0.84
0.85
0.85
0.85
0.81
0.79
0.79
0.81
0.83
0.85
0.83
0.82
0.81
0.86
0.87
0.89
0.89
0.84
0.83
0.83
0.84
0.84
0.81
0.81
0.85
0.87
0.89
0.84
0.86
0.89
0.9
0.91
0.87
0.84
0.82
0.84
0.86
0.86
0.86
0.83
0.81
0.84
0.86
0.88
0.86
0.85
0.83
0.8
0.83
0.85
0.86
0.84
0.82
0.83
0.85
0.85
0.85
0.83
0.81
0.81
0.81
0.82
0.85
0.82
0.8
0.84
0.85
0.86
0.87
0.84
0.83
0.81
0.83
0.83
0.82
0.8
0.79
0.84
0.87
0.91
0.88
0.87
0.91
0.92
0.88
0.85
0.83
0.8
0.79
0.79
0.79
0.8
0.77
0.78
0.79
0.8
0.8
0.8
0.8
0.78
0.78
0.78
0.79
0.8
0.8
0.78
0.78
0.79
0.78
0.79
0.79
0.78
0.77
0.81
0.86
0.88
0.9
0.88
0.85
0.89
0.91
0.9
0.89
0.86
0.83
0.82
0.83
0.85
0.86
0.87
0.84
0.82
0.84
0.84
0.85
0.85
0.81
0.8
0.81
0.83
0.83
0.83
0.8
0.82
0.83
0.82
0.83
0.81
0.8
0.81
0.82
0.83
0.83
0.8
0.81
0.83
0.83
0.82
0.8
0.79
0.78
0.79
0.8
0.83
0.82
0.79
0.8
0.81
0.82
0.84
0.85
0.82
0.81
0.84
0.86
0.86
0.86
0.82
0.81
0.82
0.83
0.83
0.85
0.83
0.81
0.82
0.83
0.85
0.86
0.83
0.82
0.84
0.85
0.86
0.86
0.83
0.82
0.82
0.84
0.83
0.82
0.79
0.79
0.8
0.83
0.84
0.84
0.83
0.83
0.86
0.86
0.87
0.86
0.85
0.81
0.8
0.81
0.82
0.81
0.8
0.8
0.81
0.84
0.87
0.85
0.83
0.85
0.88
0.88
0.87
0.83
0.83
0.84
0.84
0.82
0.83
0.81
0.81
0.83
0.87
0.88
0.88
0.86
0.83
0.83
0.83
0.84
0.83
0.83
0.82
0.8
0.82
0.85
0.84
0.86
0.83
0.81
0.83
0.88
0.85
0.88
0.83
0.83
0.83
0.85
0.85
0.85
0.82
0.81
0.82
0.83
0.84
0.82
0.82
0.8
0.8
0.81
0.82
0.84
0.87
0.84
0.82
0.85
0.88
0.89
0.89
0.89
0.83
0.83
0.84
0.87
0.95
0.93
0.89
0.88
0.93
0.95
0.94
0.88
0.87
0.88
0.88
0.85
0.82
0.81
0.82
0.81
0.8
0.79
0.8
0.82
0.82
0.83
0.81
0.8
0.8
0.82
0.84
0.87
0.86
0.83
0.82
0.85
0.88
0.87
0.87
0.82
0.81
0.81
0.81
0.82
0.84
0.85
0.8
0.79
0.82
0.83
0.84
0.85
0.86
0.83
0.83
0.85
0.86
0.87
0.82
0.8
0.8
0.82
0.84
0.82
0.8
0.8
0.83
0.85
0.87
0.85
0.82
0.79
0.81
0.82
0.82
0.81
0.8
0.85
0.86
0.88
0.85
0.84
0.85
0.87
0.88
0.86
0.85
0.83
0.81
0.8
0.79
0.8
0.82
0.8
0.79
0.84
0.88
0.88
0.87
0.83
0.84
0.87
0.85
0.85
0.85
0.83
0.8
0.8
0.81
0.82
0.83
0.84
0.81
0.79
0.82
0.83
0.84
0.83
0.81
0.84
0.84
0.85
0.85
0.86
0.84
0.81
0.82
0.84
0.84
0.84
0.82
0.8
0.82
0.83
0.83
0.81
0.81
0.82
0.84
0.86
0.84
0.81
0.81
0.82
0.83
0.88
0.86
0.9
0.85
0.84
0.86
0.88
0.9
0.89
0.85
0.84
0.84
0.87
0.87
0.83
0.81
0.82
0.82
0.85
0.82
0.81
0.82
0.84
0.86
0.86
0.85
0.81
0.84
0.84
0.84
0.84
0.8
0.79
0.79
0.8
0.79
0.79
0.8
0.78
0.76
0.78
0.79
0.8
0.81
0.82
0.8
0.78
0.82
0.83
0.84
0.85
0.82
0.79
0.79
0.8
0.81
0.82
0.83
0.81
0.8
0.79
0.81
0.82
0.85
0.85
0.81
0.82
0.85
0.88
0.86
0.83
0.82
0.84
0.86
0.87
0.84
0.82
0.83
0.84
0.85
0.84
0.81
0.82
0.82
0.81
0.8
0.85
0.85
0.89
0.85
0.86
0.96
0.96
0.98
0.93
0.89
0.87
0.89
0.87
0.87
0.86
0.85
0.81
0.82
0.82
0.84
0.85
0.86
0.82
0.82
0.83
0.83
0.83
0.8
0.78
0.78
0.78
0.8
0.81
0.81
0.79
0.79
0.84
0.87
0.87
0.86
0.83
0.82
0.83
0.84
0.86
0.86
0.84
0.82
0.83
0.83
0.85
0.84
0.81
0.81
0.82
0.85
0.84
0.86
0.82
0.8
0.82
0.83
0.84
0.83
0.83
0.86
0.9
0.91
0.87
0.85
0.86
0.86
0.86
0.87
0.86
0.83
0.84
0.84
0.86
0.85
0.82
0.83
0.85
0.83
0.81
0.83
0.85
0.88
0.87
0.84
0.83
0.83
0.87
0.85
0.87
0.87
0.83
0.82
0.84
0.86
0.87
0.87
0.83
0.82
0.83
0.84
0.84
0.85
0.82
0.79
0.8
0.82
0.84
0.82
0.8
0.79
0.81
0.81
0.82
0.82
0.8
0.79
0.79
0.79
0.82
0.84
0.82
0.81
0.84
0.84
0.85
0.84
0.82
0.81
0.84
0.84
0.85
0.85
0.83
0.81
0.82
0.85
0.84
0.84
0.82
0.81
0.81
0.81
0.84
0.86
0.81
0.82
0.83
0.86
0.85
0.87
0.86
0.82
0.83
0.84
0.86
0.84
0.83
0.81
0.81
0.82
0.83
0.84
0.83
0.82
0.79
0.81
0.82
0.85
0.86
0.84
0.81
0.85
0.88
0.89
0.86
0.87
0.83
0.83
0.83
0.83
0.85
0.85
0.81
0.81
0.82
0.83
0.84
0.83
0.83
0.82
0.79
0.79
0.8
0.81
0.8
0.81
0.81
0.78
0.83
0.89
0.88
0.88
0.88
0.84
0.87
0.88
0.87
0.84
0.82
0.84
0.84
0.85
0.87
0.85
0.82
0.82
0.83
0.84
0.84
0.86
0.81
0.81
0.82
0.84
0.83
0.82
0.8
0.8
0.8
0.8
0.82
0.83
0.81
0.8
0.8
0.81
0.83
0.82
0.83
0.82
0.8
0.83
0.84
0.85
0.86
0.82
0.8
0.82
0.82
0.82
0.81
0.8
0.83
0.84
0.86
0.84
0.8
0.84
0.86
0.86
0.87
0.85
0.84
0.86
0.88
0.89
0.88
0.87
0.83
0.81
0.83
0.83
0.86
0.9
0.84
0.8
0.82
0.83
0.87
0.85
0.86
0.86
0.9
0.87
0.82
0.79
0.77
0.74
0.72
0.73
0.74
0.74
0.79
0.86
0.91
0.89
0.85
0.85
0.84
0.83
0.8
0.77
0.78
0.77
0.77
0.77
0.77
0.75
0.75
0.77
0.79
0.79
0.79
0.78
0.76
0.78
0.78
0.8
0.79
0.77
0.77
0.77
0.79
0.81
0.79
0.78
0.79
0.78
0.81
0.81
0.8
0.78
0.76
0.77
0.79
0.84
0.89
0.89
0.86
0.83
0.84
0.87
0.89
0.89
0.87
0.82
0.78
0.8
0.82
0.84
0.86
0.83
0.81
0.83
0.85
0.89
0.84
0.82
0.81
0.82
0.83
0.83
0.82
0.79
0.8
0.8
0.81
0.82
0.8
0.79
0.81
0.86
0.93
0.87
0.86
0.92
0.99
1.01
0.99
0.92
0.87
0.88
0.87
0.87
0.85
0.84
0.8
0.84
0.85
0.87
0.87
0.85
0.82
0.82
0.84
0.86
0.87
0.86
0.86
0.83
0.81
0.84
0.84
0.85
0.85
0.82
0.8
0.78
0.8
0.81
0.82
0.84
0.81
0.78
0.8
0.8
0.82
0.85
0.81
0.8
0.82
0.84
0.84
0.83
0.85
0.82
0.79
0.84
0.86
0.86
0.84
0.83
0.84
0.83
0.83
0.82
0.79
0.81
0.81
0.83
0.85
0.81
0.8
0.82
0.83
0.85
0.85
0.81
0.82
0.84
0.87
0.87
0.85
0.82
0.81
0.84
0.86
0.86
0.84
0.84
0.86
0.87
0.88
0.88
0.84
0.81
0.83
0.84
0.84
0.83
0.81
0.81
0.82
0.84
0.84
0.83
0.83
0.8
0.81
0.82
0.84
0.83
0.82
0.8
0.79
0.81
0.81
0.81
0.82
0.79
0.79
0.82
0.83
0.88
0.87
0.84
0.82
0.85
0.85
0.86
0.87
0.85
0.81
0.84
0.85
0.85
0.84
0.81
0.84
0.85
0.87
0.85
0.82
0.82
0.83
0.84
0.83
0.83
0.83
0.8
0.81
0.82
0.81
0.83
0.83
0.82
0.8
0.82
0.83
0.85
0.86
0.82
0.81
0.83
0.84
0.85
0.85
0.82
0.8
0.81
0.83
0.83
0.84
0.84
0.82
0.84
0.87
0.9
0.88
0.86
0.83
0.85
0.85
0.86
0.86
0.82
0.81
0.82
0.84
0.87
0.91
0.88
0.84
0.9
0.92
0.91
0.92
0.87
0.84
0.83
0.85
0.84
0.84
0.82
0.81
0.79
0.8
0.79
0.8
0.81
0.8
0.8
0.82
0.84
0.86
0.88
0.84
0.82
0.85
0.87
0.86
0.84
0.81
0.82
0.83
0.84
0.86
0.84
0.81
0.82
0.82
0.84
0.84
0.83
0.85
0.87
0.88
0.91
0.89
0.85
0.82
0.82
0.82
0.82
0.83
0.84
0.82
0.8
0.84
0.87
0.89
0.9
0.86
0.83
0.85
0.86
0.86
0.81
0.82
0.82
0.81
0.81
0.81
0.79
0.81
0.83
0.84
0.84
0.85
0.83
0.82
0.85
0.84
0.85
0.81
0.82
0.82
0.84
0.83
0.83
0.81
0.81
0.84
0.84
0.84
0.83
0.8
0.82
0.83
0.82
0.83
0.82
0.8
0.79
0.8
0.83
0.84
0.84
0.83
0.82
0.83
0.86
0.85
0.84
0.82
0.81
0.83
0.84
0.83
0.81
0.8
0.82
0.83
0.84
0.82
0.78
0.82
0.8
0.83
0.85
0.88
0.91
0.88
0.85
0.88
0.94
0.94
0.93
0.86
0.83
0.83
0.83
0.84
0.84
0.84
0.81
0.81
0.83
0.84
0.83
0.84
0.8
0.8
0.82
0.82
0.83
0.81
0.8
0.79
0.81
0.81
0.82
0.85
0.81
0.86
0.88
0.9
0.86
0.85
0.87
0.86
0.9
0.9
0.89
0.84
0.84
0.86
0.86
0.87
0.87
0.87
0.83
0.82
0.81
0.83
0.85
0.84
0.85
0.81
0.79
0.79
0.8
0.82
0.81
0.8
0.79
0.81
0.82
0.85
0.86
0.82
0.79
0.78
0.82
0.79
0.78
0.75
0.72
0.73
0.76
0.8
0.81
0.8
0.83
0.79
0.75
0.74
0.73
0.72
0.71
0.7
0.69
0.68
0.68
0.68
0.71
0.73
0.74
0.73
0.74
0.75
0.73
0.72
0.74
0.73
0.75
0.76
0.76
0.74
0.7
0.68
0.66
0.66
0.7
0.7
0.71
0.78
0.79
0.8
0.88
0.87
0.89
0.88
0.81
0.79
0.79
0.81
0.82
0.83
0.83
0.82
0.83
0.79
0.78
0.77
0.79
0.8
0.8
0.81
0.82
0.78
0.74
0.73
0.71
0.73
0.72
0.76
0.77
0.89
0.98
0.94
0.95
0.94
0.9
0.89
0.89
0.89
0.91
0.87
0.85
0.86
0.84
0.84
0.85
0.84
0.81
0.82
0.84
0.83
0.83
0.79
0.76
0.74
0.75
0.76
0.76
0.74
0.74
0.74
0.73
0.73
0.73
0.72
0.73
0.76
0.77
0.79
0.82
0.86
0.87
0.87
0.83
0.84
0.84
0.85
0.85
0.83
0.79
0.8
0.79
0.79
0.78
0.79
0.82
0.79
0.76
0.75
0.74
0.75
0.81
0.84
0.82
0.8
0.83
0.85
0.87
0.84
0.81
0.81
0.81
0.81
0.82
0.81
0.8
0.76
0.76
0.75
0.73
0.72
0.7
0.71
0.7
0.73
0.76
0.76
0.74
0.74
0.73
0.72
0.72
0.73
0.7
1.26
0.8
0.65
0.66
0.65
0.65
0.64
0.65
0.43
0.83
0.63
0.62
0.61
0.61
0.59
0.6
0.58
0.58
0.56
0.57
0.56
0.56
0.56
0.56
0.56
0.58
0.62
0.63
0.66
0.69
0.68
0.66
0.68
0.7
0.81
0.84
0.88
0.82
0.77
0.78
0.79
0.83
0.87
0.88
0.85
0.8
0.78
0.77
0.79
0.86
0.84
0.84
0.79
0.8
0.82
0.85
0.82
0.8
0.8
0.77
0.76
0.78
0.78
0.81
0.82
0.83
0.81
0.78
0.79
0.78
0.78
0.79
0.8
0.79
0.78
0.82
0.83
0.83
0.8
0.78
0.75
0.74
0.76
0.76
0.79
0.8
0.78
0.75
0.74
0.74
0.74
0.75
0.77
0.78
0.76
0.75
0.8
0.84
0.8
0.79
0.76
0.75
0.75
0.75
0.77
0.75
0.76
0.75
0.79
0.85
0.87
0.87
0.84
0.82
0.8
0.84
0.85
0.83
0.83
0.79
0.79
0.8
0.81
0.84
0.83
0.82
0.81
0.81
0.8
0.81
0.79
0.79
0.81
0.86
0.87
0.87
0.88
0.83
0.79
0.79
0.79
0.8
0.8
0.79
0.79
0.83
0.89
0.9
0.87
0.84
0.83
0.86
0.83
0.84
0.82
0.78
0.77
0.79
0.78
0.81
0.82
0.81
0.79
0.78
0.78
0.79
0.81
0.83
0.84
0.82
0.8
0.8
0.8
0.83
0.82
0.82
0.79
0.8
0.8
0.81
0.81
0.83
0.81
0.79
0.77
0.78
0.78
0.8
0.83
0.82
0.8
0.79
0.8
0.8
0.82
0.81
0.79
0.79
0.79
0.79
0.8
0.81
0.79
0.78
0.78
0.79
0.81
0.83
0.82
0.79
0.79
0.83
0.84
0.82
0.82
0.81
0.78
0.77
0.77
0.78
0.79
0.81
0.79
0.79
0.83
0.84
0.84
0.83
0.81
0.82
0.83
0.82
0.8
0.78
0.77
0.78
0.79
0.81
0.8
0.81
0.79
0.79
0.8
0.84
0.88
0.87
0.84
0.82
0.85
0.86
0.85
0.83
0.82
0.79
0.77
0.8
0.8
0.79
0.8
0.79
0.76
0.74
0.76
0.81
0.85
0.87
0.86
0.88
0.99
1.01
0.97
0.91
0.87
0.86
0.84
0.84
0.8
0.78
0.79
0.8
0.81
0.82
0.83
0.8
0.8
0.83
0.84
0.84
0.83
0.8
0.78
0.78
0.78
0.77
0.77
0.77
0.76
0.78
0.79
0.82
0.82
0.83
0.8
0.78
0.8
0.82
0.85
0.86
0.84
0.8
0.78
0.81
0.83
0.83
0.85
0.82
0.79
0.77
0.78
0.83
0.91
0.94
0.94
0.89
0.84
0.84
0.84
0.86
0.85
0.83
0.79
0.77
0.78
0.79
0.8
0.82
0.82
0.82
0.8
0.78
0.8
0.8
0.82
0.83
0.83
0.79
0.79
0.8
0.81
0.83
0.83
0.84
0.81
0.78
0.8
0.8
0.82
0.83
0.82
0.78
0.77
0.78
0.78
0.8
0.82
0.82
0.8
0.78
0.81
0.81
0.82
0.82
0.8
0.78
0.76
0.76
0.78
0.78
0.8
0.77
0.75
0.77
0.78
0.79
0.8
0.77
0.77
0.77
0.78
0.8
0.79
0.78
0.77
0.78
0.79
0.83
0.86
0.88
0.84
0.81
0.82
0.82
0.84
0.84
0.82
0.77
0.77
0.76
0.8
0.83
0.84
0.81
0.78
0.81
0.84
0.86
0.84
0.8
0.76
0.79
0.79
0.82
0.83
0.82
0.78
0.77
0.8
0.8
0.82
0.83
0.85
0.82
0.78
0.8
0.81
0.84
0.84
0.81
0.8
0.81
0.82
0.83
0.83
0.81
0.8
0.8
0.8
0.82
0.81
0.8
0.76
0.75
0.77
0.78
0.83
0.85
0.85
0.81
0.8
0.82
0.83
0.83
0.82
0.83
0.78
0.77
0.78
0.79
0.81
0.8
0.79
0.77
0.8
0.82
0.85
0.88
0.84
0.81
0.8
0.81
0.79
0.79
0.78
0.75
0.77
0.8
0.84
0.85
0.83
0.82
0.85
0.88
0.9
0.86
0.84
0.78
0.75
0.76
0.79
0.85
0.93
0.96
0.95
0.96
0.95
0.94
0.91
0.86
0.83
0.84
0.82
0.83
0.81
0.81
0.8
0.81
0.83
0.83
0.82
0.8
0.78
0.8
0.8
0.8
0.79
0.79
0.78
0.81
0.83
0.85
0.84
0.81
0.8
0.82
0.84
0.85
0.84
0.82
0.8
0.81
0.83
0.82
0.82
0.8
0.79
0.79
0.81
0.85
0.85
0.85
0.84
0.8
0.81
0.8
0.83
0.82
0.8
0.81
0.81
0.83
0.84
0.84
0.81
0.81
0.8
0.81
0.82
0.83
0.85
0.82
0.81
0.84
0.86
0.87
0.87
0.83
0.82
0.82
0.82
0.82
0.82
0.83
0.81
0.8
0.81
0.82
0.83
0.83
0.82
0.82
0.82
0.83
0.84
0.84
0.86
0.84
0.81
0.82
0.82
0.83
0.81
0.79
0.79
0.8
0.8
0.8
0.79
0.79
0.81
0.81
0.8
0.81
0.79
0.79
0.8
0.81
0.83
0.83
0.79
0.79
0.8
0.82
0.83
0.83
0.82
0.84
0.86
0.87
0.85
0.83
0.81
0.81
0.82
0.83
0.84
0.81
0.8
0.83
0.85
0.87
0.84
0.81
0.83
0.84
0.85
0.84
0.81
0.8
0.8
0.81
0.82
0.83
0.81
0.8
0.82
0.82
0.82
0.83
0.8
0.78
0.79
0.79
0.81
0.82
0.8
0.8
0.81
0.81
0.82
0.81
0.8
0.79
0.82
0.83
0.84
0.84
0.85
0.82
0.81
0.82
0.82
0.83
0.82
0.81
0.8
0.78
0.79
0.8
0.81
0.81
0.82
0.8
0.8
0.8
0.83
0.83
0.83
0.8
0.8
0.8
0.8
0.81
0.8
0.78
0.79
0.82
0.84
0.82
0.83
0.81
0.8
0.81
0.81
0.82
0.8
0.79
0.78
0.79
0.8
0.8
0.8
0.8
0.8
0.82
0.84
0.85
0.83
0.8
0.82
0.84
0.86
0.87
0.84
0.8
0.82
0.8
0.81
0.82
0.8
0.79
0.79
0.81
0.81
0.82
0.82
0.78
0.79
0.8
0.8
0.8
0.79
0.76
0.76
0.76
0.77
0.78
0.78
0.76
0.75
0.76
0.77
0.81
0.85
0.85
0.81
0.78
0.79
0.81
0.83
0.83
0.81
0.79
0.8
0.81
0.83
0.8
0.78
0.77
0.78
0.78
0.79
0.77
0.76
0.75
0.74
0.75
0.77
0.77
0.75
0.75
0.76
0.76
0.77
0.77
0.76
0.74
0.76
0.78
0.79
0.81
0.8
0.8
0.81
0.83
0.82
0.82
0.81
0.78
0.79
0.8
0.82
0.82
0.8
0.79
0.82
0.83
0.85
0.86
0.84
0.81
0.8
0.81
0.81
0.81
0.79
0.76
0.76
0.76
0.76
0.75
0.75
0.74
0.77
0.78
0.81
0.79
0.78
0.77
0.78
0.79
0.8
0.81
0.79
0.78
0.79
0.78
0.8
0.81
0.8
0.77
0.77
0.78
0.78
0.8
0.8
0.8
0.77
0.78
0.78
0.79
0.83
0.84
0.82
0.8
0.83
0.83
0.85
0.85
0.81
0.8
0.79
0.79
0.81
0.79
0.78
0.76
0.77
0.77
0.79
0.8
0.78
0.8
0.8
0.82
0.81
0.81
0.78
0.76
0.77
0.79
0.81
0.81
0.8
0.78
0.79
0.79
0.81
0.8
0.79
0.78
0.79
0.83
0.83
0.83
0.79
0.78
0.79
0.81
0.84
0.83
0.84
0.8
0.78
0.81
0.82
0.81
0.82
0.81
0.78
0.79
0.79
0.81
0.83
0.81
0.78
0.8
0.81
0.83
0.83
0.82
0.79
0.78
0.79
0.79
0.82
0.83
0.83
0.79
0.82
0.83
0.84
0.83
0.82
0.79
0.79
0.79
0.81
0.79
0.79
0.81
0.82
0.8
0.79
0.82
0.83
0.85
0.84
0.85
0.81
0.81
0.81
0.83
0.84
0.85
0.82
0.81
0.84
0.84
0.85
0.85
0.83
0.82
0.78
0.8
0.82
0.81
0.82
0.82
0.79
0.79
0.8
0.82
0.85
0.84
0.83
0.79
0.79
0.79
0.81
0.82
0.81
0.78
0.77
0.79
0.8
0.81
0.82
0.8
0.77
0.79
0.79
0.8
0.81
0.83
0.78
0.78
0.8
0.8
0.81
0.81
0.82
0.79
0.78
0.79
0.8
0.83
0.81
0.79
0.8
0.83
0.83
0.85
0.83
0.81
0.8
0.8
0.8
0.79
0.81
0.82
0.83
0.93
1.01
1.02
0.93
0.86
0.84
0.84
0.84
0.83
0.81
0.79
0.81
0.8
0.82
0.81
0.8
0.8
0.81
0.82
0.82
0.82
0.8
0.81
0.81
0.81
0.81
0.79
0.79
0.78
0.78
0.78
0.78
0.79
0.77
0.77
0.78
0.8
0.81
0.8
0.8
0.78
0.77
0.79
0.8
0.81
0.81
0.8
0.79
0.81
0.82
0.83
0.82
0.81
0.77
0.78
0.77
0.79
0.79
0.78
0.79
0.81
0.86
0.9
0.91
0.88
0.83
0.82
0.82
0.83
0.81
0.81
0.78
0.77
0.79
0.8
0.81
0.81
0.8
0.8
0.77
0.75
0.76
0.77
0.75
0.73
0.71
0.72
0.72
0.68
0.69
0.76
0.82
0.83
0.78
0.75
0.73
0.7
0.71
0.71
0.73
0.76
0.79
0.79
0.8
0.75
0.73
0.74
0.73
0.76
0.77
0.76
0.73
0.75
0.73
0.72
0.75
0.76
0.73
0.71
0.7
0.68
0.67
0.66
0.65
0.67
0.68
0.67
0.68
0.69
0.7
0.71
0.71
0.73
0.73
0.71
0.71
0.7
0.7
0.7
0.73
0.71
0.73
0.72
0.71
0.73
0.74
0.75
0.76
0.77
0.75
0.73
0.71
0.7
0.68
0.7
0.76
0.8
0.77
0.78
0.81
0.9
0.94
0.91
0.86
0.82
0.8
0.8
0.79
0.78
0.77
0.75
0.76
0.77
0.77
0.78
0.77
0.77
0.74
0.73
0.72
0.72
0.74
0.81
0.83
0.8
0.81
0.84
0.84
0.84
0.8
0.79
0.77
0.76
0.76
0.77
0.81
0.82
0.82
0.79
0.81
0.81
0.82
0.82
0.84
0.81
0.77
0.78
0.78
0.81
0.8
0.81
0.8
0.8
0.79
0.76
0.74
0.74
0.75
0.79
0.81
0.83
0.81
0.82
0.86
0.87
0.87
0.87
0.87
0.86
0.82
0.78
0.79
0.76
0.77
0.76
0.76
0.76
0.79
0.81
0.84
0.83
0.84
0.81
0.78
0.77
0.76
0.74
0.73
0.72
0.71
0.73
0.77
0.79
0.78
0.75
0.76
0.75
0.73
0.71
0.7
0.73
0.78
0.79
0.78
0.76
0.73
0.72
0.72
0.71
0.71
0.71
0.69
0.69
0.68
0.67
0.67
0.68
0.68
0.69
0.72
0.76
0.8
0.82
0.81
0.81
0.81
0.81
0.8
0.8
0.77
0.77
0.78
0.81
0.8
0.82
0.81
0.79
0.78
0.77
0.78
0.77
0.79
0.78
0.75
0.75
0.78
0.8
0.82
0.85
0.84
0.82
0.78
0.8
0.78
0.8
0.81
0.81
0.78
0.76
0.74
0.73
0.74
0.8
0.82
0.81
0.82
0.85
0.88
0.89
0.88
0.85
0.82
0.81
0.8
0.81
0.78
0.78
0.78
0.79
0.81
0.81
0.81
0.79
0.81
0.82
0.83
0.82
0.8
0.79
0.78
0.78
0.78
0.8
0.78
0.84
0.8
0.8
0.8
0.76
0.74
0.73
0.77
0.9
0.91
0.86
0.84
0.84
0.87
0.87
0.86
0.85
0.82
0.79
0.8
0.78
0.77
0.77
0.75
0.73
0.74
0.72
0.72
0.73
0.74
0.75
0.74
0.74
0.76
0.77
0.8
0.82
0.81
0.78
0.78
0.78
0.79
0.77
0.76
0.76
0.76
0.77
0.78
0.78
0.77
0.76
0.77
0.78
0.8
0.81
0.82
0.82
0.81
0.78
0.78
0.83
0.88
0.88
0.85
0.82
0.81
0.84
0.84
0.84
0.83
0.81
0.8
0.79
0.78
0.78
0.8
0.79
0.79
0.83
0.85
0.88
0.88
0.84
0.82
0.83
0.84
0.84
0.84
0.82
0.81
0.81
0.81
0.85
0.83
0.84
0.81
0.8
0.82
0.82
0.82
0.83
0.82
0.8
0.78
0.81
0.82
0.82
0.8
0.8
0.78
0.79
0.8
0.81
0.81
0.79
0.79
0.8
0.82
0.84
0.84
0.8
0.79
0.79
0.79
0.8
0.79
0.78
0.77
0.76
0.79
0.79
0.82
0.81
0.81
0.79
0.81
0.82
0.83
0.82
0.8
0.79
0.79
0.8
0.79
0.81
0.79
0.79
0.79
0.8
0.82
0.84
0.85
0.81
0.81
0.83
0.83
0.83
0.83
0.81
0.85
0.9
0.97
0.96
0.94
0.9
0.86
0.85
0.85
0.83
0.82
0.8
0.8
0.81
0.83
0.85
0.84
0.84
0.83
0.81
0.8
0.79
0.79
0.77
0.75
0.74
0.74
0.75
0.77
0.82
0.83
0.8
0.8
0.83
0.84
0.84
0.83
0.79
0.77
0.77
0.76
0.78
0.8
0.81
0.84
0.98
1.05
1.04
1
0.94
0.91
0.9
0.87
0.86
0.83
0.8
0.78
0.75
0.76
0.77
0.77
0.78
0.79
0.8
0.8
0.88
0.87
0.84
0.82
0.82
0.87
0.92
0.91
0.91
0.86
0.83
0.85
0.86
0.86
0.84
0.82
0.8
0.8
0.81
0.81
0.82
0.8
0.79
0.81
0.81
0.83
0.83
0.8
0.78
0.8
0.84
0.85
0.84
0.83
0.79
0.8
0.82
0.84
0.86
0.85
0.81
0.83
0.85
0.86
0.87
0.87
0.83
0.82
0.82
0.83
0.84
0.84
0.81
0.81
0.83
0.85
0.87
0.87
0.87
0.84
0.81
0.83
0.83
0.83
0.84
0.83
0.8
0.8
0.81
0.81
0.83
0.84
0.81
0.79
0.8
0.81
0.81
0.83
0.83
0.8
0.79
0.78
0.77
0.78
0.77
0.77
0.77
0.76
0.76
0.83
0.9
0.92
0.93
0.88
0.84
0.85
0.84
0.84
0.82
0.81
0.8
0.81
0.82
0.82
0.81
0.8
0.78
0.79
0.79
0.8
0.79
0.77
0.76
0.77
0.78
0.79
0.77
0.78
0.8
0.82
0.85
0.84
0.81
0.81
0.82
0.82
0.82
0.81
0.78
0.79
0.81
0.83
0.85
0.84
0.85
0.83
0.81
0.82
0.83
0.83
0.83
0.82
0.8
0.81
0.8
0.82
0.82
0.81
0.79
0.78
0.79
0.78
0.8
0.81
0.78
0.79
0.81
0.81
0.82
0.83
0.82
0.79
0.82
0.84
0.86
0.86
0.82
0.82
0.81
0.79
0.78
0.74
0.73
0.74
0.76
0.88
0.92
0.94
0.88
0.91
0.94
0.92
0.92
0.89
0.82
0.79
0.78
0.76
0.74
0.74
0.74
0.76
0.81
0.85
0.9
0.86
0.81
0.85
0.89
0.92
0.85
0.83
0.85
0.85
0.84
0.83
0.81
0.8
0.8
0.79
0.8
0.77
0.76
0.77
0.81
0.83
0.87
0.86
0.84
0.84
0.87
0.86
0.85
0.84
0.81
0.79
0.8
0.8
0.8
0.79
0.78
0.78
0.8
0.82
0.84
0.83
0.8
0.78
0.79
0.78
0.78
0.79
0.77
0.75
0.76
0.79
0.82
0.84
0.8
0.79
0.82
0.83
0.84
0.82
0.77
0.74
0.73
0.73
0.76
0.81
0.79
0.78
0.81
0.87
0.91
0.92
0.88
0.8
0.78
0.76
0.74
0.72
0.72
0.72
0.71
0.7
0.7
0.69
0.69
0.69
0.68
0.68
0.68
0.68
0.66
0.67
0.66
0.66
0.65
0.66
0.68
0.7
0.7
0.71
0.72
0.71
0.72
0.71
0.7
0.69
0.67
0.66
0.64
0.63
0.62
0.62
0.62
0.62
0.64
0.65
0.65
0.67
0.66
0.67
0.67
0.65
0.65
0.63
0.62
0.62
0.6
0.6
0.59
0.58
0.59
0.58
0.58
0.58
0.58
0.58
0.58
0.59
0.59
0.6
0.59
0.6
0.59
0.59
0.6
0.59
0.59
0.59
0.58
0.59
0.58
0.58
0.6
0.64
0.67
0.73
0.79
0.82
0.8
0.81
0.84
0.94
0.91
0.89
0.83
0.8
0.81
0.82
0.84
0.85
0.87
0.83
0.81
0.82
0.85
0.86
0.87
0.9
0.88
0.84
0.81
0.83
0.83
0.85
0.85
0.82
0.81
0.84
0.84
0.85
0.86
0.82
0.8
0.82
0.82
0.84
0.83
0.83
0.78
0.79
0.8
0.81
0.83
0.83
0.82
0.81
0.79
0.82
0.85
0.86
0.82
0.81
0.83
0.86
0.88
0.86
0.83
0.81
0.84
0.86
0.87
0.86
0.82
0.8
0.83
0.84
0.85
0.83
0.82
0.83
0.85
0.84
0.8
0.8
0.85
0.96
0.99
1.02
0.95
0.89
0.88
0.87
0.86
0.84
0.79
0.78
0.78
0.81
0.9
0.85
0.82
0.81
0.8
0.79
0.78
0.82
0.87
0.89
0.86
0.9
0.91
0.9
0.89
0.86
0.83
0.83
0.82
0.83
0.82
0.81
0.81
0.84
0.88
0.89
0.9
0.96
0.9
0.87
0.89
0.91
0.89
0.84
0.81
0.83
0.84
0.88
0.87
0.84
0.82
0.86
0.87
0.89
0.87
0.84
0.81
0.87
0.92
0.94
0.92
0.87
0.88
0.91
0.92
0.92
0.86
0.85
0.84
0.86
0.88
0.88
0.9
0.82
0.82
0.82
0.84
0.86
0.87
0.84
0.84
0.89
0.94
0.92
0.87
0.86
0.86
0.86
0.84
0.82
0.8
0.79
0.84
0.87
0.89
0.87
0.85
0.84
0.88
0.9
0.86
0.84
0.81
0.82
0.85
0.9
0.9
0.9
0.87
0.83
0.86
0.87
0.88
0.86
0.83
0.85
0.86
0.88
0.91
0.87
0.86
0.93
0.97
0.96
0.9
0.86
0.89
0.88
0.88
0.87
0.86
0.84
0.83
0.88
0.88
0.9
0.85
0.85
0.88
0.92
0.94
0.93
0.87
0.85
0.87
0.88
0.9
0.91
0.86
0.83
0.83
0.85
0.86
0.86
0.85
0.84
0.87
0.85
0.86
0.85
0.82
0.87
0.93
0.96
0.96
0.93
0.88
0.91
0.92
0.92
0.87
0.84
0.83
0.86
0.86
0.87
0.87
0.83
0.81
0.8
0.81
0.81
0.8
0.79
0.79
0.78
0.8
0.82
0.87
0.86
0.82
0.84
0.92
0.94
0.91
0.86
0.84
0.82
0.81
0.83
0.8
0.82
0.86
0.96
1.02
1.03
1.02
0.93
0.87
0.9
0.89
0.89
0.85
0.83
0.86
0.9
0.9
0.87
0.84
0.87
0.9
0.89
0.85
0.83
0.82
0.82
0.86
0.9
0.88
0.86
0.89
0.94
0.95
0.97
0.89
0.89
0.9
0.89
0.88
0.86
0.83
0.83
0.86
0.86
0.85
0.84
0.86
0.89
0.89
0.9
0.87
0.84
0.87
0.88
0.89
0.85
0.83
0.85
0.86
0.87
0.87
0.84
0.82
0.8
0.8
0.84
0.84
0.87
0.89
0.86
0.86
0.91
1.02
1.01
0.93
0.87
0.88
0.89
0.87
0.85
0.82
0.8
0.81
0.8
0.79
0.79
0.78
0.79
0.78
0.79
0.79
0.78
0.78
0.81
0.81
0.84
0.84
0.84
0.83
0.85
0.84
0.84
0.81
0.8
0.81
0.82
0.85
0.84
0.86
0.83
0.82
0.87
0.9
0.94
0.94
0.88
0.86
0.85
0.84
0.82
0.8
0.8
0.82
0.87
0.92
0.9
0.87
0.83
0.84
0.83
0.82
0.83
0.81
0.8
0.82
0.84
0.95
0.95
0.86
0.89
0.9
0.89
0.86
0.82
0.82
0.82
0.79
0.78
0.78
0.8
0.79
0.84
0.86
0.84
0.82
0.86
0.87
0.86
0.85
0.81
0.81
0.83
0.85
0.85
0.84
0.81
0.81
0.84
0.86
0.9
0.96
0.95
0.91
0.93
0.96
0.97
0.96
0.94
0.96
0.95
0.94
0.88
0.89
0.93
0.94
0.89
0.88
0.92
0.92
0.9
0.86
0.85
0.89
0.95
0.96
0.89
0.9
0.93
0.91
0.91
0.86
0.85
0.87
0.9
0.9
0.92
0.92
0.94
0.92
0.87
0.86
0.94
0.94
0.96
0.99
0.95
0.94
0.93
0.9
0.86
0.84
0.85
0.86
0.85
0.83
0.82
0.84
0.88
0.89
0.85
0.83
0.86
0.86
0.87
0.88
0.83
0.81
0.82
0.81
0.8
0.8
0.79
0.77
0.77
0.78
0.81
0.82
0.83
0.81
0.8
0.84
0.88
0.9
0.88
0.86
0.82
0.8
0.8
0.79
0.78
0.75
0.73
0.73
0.72
0.73
0.91
0.96
0.93
0.93
1.02
1.04
1.02
1
0.98
0.97
0.96
0.91
0.88
0.88
0.91
0.89
0.91
0.89
0.91
0.91
0.9
0.88
0.88
0.88
0.86
0.86
0.84
0.84
0.87
0.92
0.89
0.89
0.95
0.97
0.96
0.94
0.93
0.93
0.9
0.88
0.86
0.86
0.85
0.83
0.86
0.9
0.88
0.86
0.87
0.86
0.83
0.81
0.83
0.81
0.84
0.84
0.83
0.83
0.87
0.88
0.87
0.85
0.84
0.86
0.87
0.85
0.82
0.81
0.81
0.81
0.82
0.8
0.81
0.83
0.83
0.84
0.8
0.8
0.8
0.82
0.8
0.81
0.79
0.79
0.82
0.83
0.84
0.83
0.84
0.88
0.9
0.88
0.87
0.9
0.91
0.9
0.93
0.89
0.84
0.84
0.83
0.81
0.8
0.84
0.86
0.94
0.91
0.88
0.85
0.86
0.86
0.84
0.8
0.81
0.81
0.8
0.8
0.77
0.8
0.93
1.23
1.09
1.01
0.96
0.94
0.93
0.88
0.9
0.94
0.9
0.93
0.91
0.87
0.9
0.87
0.83
0.8
0.82
0.81
0.87
0.85
0.85
1.03
1.07
0.97
0.94
0.92
0.94
0.94
0.91
0.87
0.84
0.82
0.8
0.77
0.77
0.79
0.8
0.86
0.84
0.84
0.86
0.91
0.92
0.89
0.85
0.82
0.83
0.8
0.82
0.78
0.8
0.86
0.96
0.96
0.89
0.93
0.94
0.94
0.87
0.85
0.85
0.83
0.8
0.79
0.82
0.79
0.77
0.79
0.77
0.8
0.89
0.94
1.06
1
0.94
0.95
0.97
0.95
0.92
0.89
0.9
0.91
0.9
0.86
0.89
0.91
0.91
0.89
0.86
0.86
0.85
0.88
0.89
0.91
0.87
0.87
0.92
0.96
1.01
0.95
0.91
0.89
0.89
0.87
0.84
0.84
0.87
0.92
0.91
0.85
0.85
0.86
0.87
0.83
0.82
0.86
0.85
0.84
0.85
0.81
0.84
0.86
0.88
0.93
0.86
0.86
0.89
0.91
0.86
0.83
0.86
0.86
0.87
0.84
0.84
0.88
0.89
0.86
0.85
0.86
0.86
0.86
0.83
0.8
0.83
0.81
0.83
0.82
0.79
0.8
0.8
0.8
0.8
0.8
0.81
0.83
0.85
0.85
0.83
0.82
0.81
0.81
0.77
0.77
0.77
0.76
0.76
0.76
0.77
0.82
0.82
0.86
0.84
0.83
0.86
0.84
0.87
0.84
0.82
0.8
0.82
0.82
0.82
0.82
0.83
0.83
0.86
0.85
0.85
0.87
0.87
0.9
0.88
0.84
0.87
0.86
0.87
0.88
0.86
0.86
0.85
0.84
0.83
0.85
0.84
0.83
0.83
0.84
0.85
0.84
0.83
0.83
0.81
0.81
0.82
0.82
0.83
0.83
0.84
0.85
0.85
0.84
0.83
0.84
0.81
0.8
0.79
0.78
0.77
0.78
0.79
0.78
0.79
0.83
0.87
0.88
0.83
0.83
0.85
0.83
0.82
0.8
0.81
0.8
0.77
0.78
0.79
0.79
0.79
0.77
0.78
0.77
0.76
0.76
0.76
0.76
0.78
0.79
0.83
0.81
0.78
0.79
0.79
0.76
0.76
0.75
0.75
0.75
0.77
0.78
0.78
0.78
0.76
0.77
0.75
0.73
0.72
0.68
0.68
0.68
0.68
0.73
0.76
0.77
0.86
0.93
1.04
1.03
1.01
0.96
0.92
0.96
0.94
0.92
0.87
0.85
0.84
0.88
0.87
0.89
0.91
0.9
0.91
0.96
0.96
0.97
0.97
0.92
0.93
0.92
0.9
0.87
0.84
0.83
0.83
0.83
0.83
0.81
0.8
0.83
0.82
0.81
0.79
0.8
0.81
0.79
0.81
0.79
0.79
0.8
0.86
0.85
0.85
0.84
0.87
0.91
0.94
0.88
0.86
0.86
0.86
0.86
0.83
0.82
0.85
0.86
0.87
0.89
0.87
0.85
0.84
0.84
0.85
0.86
0.86
0.86
0.81
0.81
0.81
0.8
0.79
0.77
0.78
0.8
0.79
0.83
0.83
0.83
0.82
0.81
0.79
0.82
0.79
0.78
0.76
0.76
0.75
0.74
0.73
0.75
0.73
0.73
0.76
0.81
0.88
0.95
0.94
0.97
0.95
0.94
0.94
0.95
0.93
0.88
0.86
0.84
0.83
0.81
0.79
0.79
0.81
0.82
0.84
0.89
0.91
0.86
0.87
0.89
0.88
0.85
0.85
0.83
0.83
0.87
0.91
0.95
0.96
0.88
0.87
0.85
0.85
0.81
0.8
0.78
0.81
0.79
0.8
0.79
0.78
0.78
0.8
0.78
0.81
0.8
0.77
0.77
0.79
0.77
0.78
0.76
0.75
0.76
0.78
0.79
0.79
0.79
0.79
0.78
0.8
0.8
0.83
0.83
0.85
0.84
0.85
0.93
0.94
0.92
0.88
0.84
0.84
0.81
0.79
0.79
0.78
0.82
0.87
1.11
1.31
1.17
1.12
1.06
0.94
0.91
0.89
0.89
0.88
0.88
0.86
0.82
0.81
0.83
0.83
0.83
0.83
0.82
0.81
0.8
0.82
0.81
0.81
0.82
0.79
0.8
0.81
0.8
0.8
0.81
0.84
0.8
0.81
0.84
0.83
0.84
0.85
0.86
0.84
0.88
0.9
0.93
0.92
0.88
0.88
0.88
0.87
0.84
0.83
0.84
0.86
0.84
0.82
0.79
0.8
0.8
0.82
0.81
0.8
0.78
0.81
0.84
0.86
0.88
0.88
0.88
0.84
0.82
0.84
0.81
0.82
0.82
0.81
0.8
0.8
0.82
0.83
0.83
0.83
0.82
0.82
0.82
0.84
0.83
0.84
0.83
0.82
0.8
0.81
0.83
0.86
0.91
0.92
0.89
0.88
0.91
0.92
0.94
0.9
0.91
1
0.97
0.99
0.93
0.88
0.86
0.85
0.84
0.84
0.83
0.83
0.81
0.87
0.88
0.88
0.85
0.85
0.81
0.79
0.79
0.78
0.78
0.77
0.81
0.8
0.81
0.91
0.93
0.98
0.97
0.97
0.91
0.87
0.85
0.84
0.82
0.82
0.81
0.82
0.8
0.79
0.8
0.81
0.82
0.84
0.87
0.85
0.83
0.88
0.9
0.9
0.9
0.88
0.85
0.83
0.83
0.84
0.86
0.87
0.86
0.83
0.82
0.82
0.86
0.89
0.92
0.9
0.85
0.84
0.87
0.84
0.82
0.81
0.84
0.82
0.82
0.81
0.79
0.79
0.83
0.88
0.9
0.92
0.93
0.93
0.86
0.88
0.88
0.86
0.85
0.86
0.82
0.82
0.84
0.83
0.82
0.81
0.85
0.84
0.85
0.87
0.86
0.84
0.84
0.88
0.88
0.88
0.84
0.8
0.79
0.79
0.81
0.82
0.88
0.84
0.86
0.95
0.98
0.96
0.89
0.87
0.89
0.85
0.83
0.8
0.77
0.78
0.76
0.76
0.77
0.76
0.76
0.77
0.79
0.79
0.8
0.78
0.78
0.8
0.79
0.78
0.77
0.77
0.77
0.76
0.76
0.75
0.76
0.24
0.5
0.75
0.75
0.75
0.74
0.73
0.75
0.73
0.74
0.73
0.75
0.74
0.73
0.73
0.74
0.77
0.81
0.85
0.86
0.87
0.86
0.85
0.85
0.83
0.83
0.82
0.8
0.82
0.81
0.8
0.81
0.79
0.77
0.79
0.79
0.79
0.79
0.77
0.76
0.77
0.77
0.79
0.82
0.78
0.8
0.82
0.83
0.85
0.88
0.83
0.82
0.84
0.85
0.85
0.86
0.85
0.83
0.86
0.87
0.88
0.87
0.86
0.82
0.82
0.82
0.82
0.82
0.82
0.8
0.79
0.82
0.83
0.84
0.82
0.82
0.79
0.82
0.82
0.83
0.84
0.83
0.85
0.83
0.81
0.84
0.82
0.83
0.82
0.8
0.79
0.8
0.79
0.8
0.79
0.78
0.78
0.78
0.78
0.78
0.77
0.78
0.77
0.76
0.79
0.78
0.79
0.79
0.77
0.78
0.8
0.81
0.8
0.81
0.8
0.8
0.81
0.8
0.79
0.76
0.76
0.78
0.77
0.8
0.8
0.81
0.81
0.82
0.84
0.85
0.85
0.82
0.84
0.83
0.82
0.82
0.81
0.79
0.79
0.81
0.86
0.88
0.89
0.92
0.87
0.86
0.88
0.91
0.9
0.88
0.88
0.85
0.82
0.81
0.81
0.81
0.83
0.81
0.81
0.85
0.88
0.84
0.84
0.82
0.81
0.81
0.85
0.84
0.86
0.87
0.84
0.84
0.87
0.89
0.9
0.89
0.85
0.83
0.85
0.84
0.88
0.89
0.89
0.86
0.84
0.88
0.91
0.9
0.9
0.85
0.86
0.87
0.86
0.85
0.85
0.83
0.81
0.87
0.94
0.95
0.97
0.94
0.9
0.92
0.93
0.89
0.85
0.82
0.82
0.83
0.85
0.85
0.86
0.84
0.88
0.93
0.95
0.96
0.92
0.86
0.85
0.86
0.86
0.85
0.86
0.83
0.83
0.84
0.85
0.88
0.88
0.84
0.84
0.86
0.86
0.85
0.85
0.81
0.8
0.83
0.83
0.85
0.84
0.83
0.81
0.8
0.82
0.83
0.84
0.82
0.79
0.82
0.85
0.89
0.87
0.85
0.82
0.86
0.87
0.87
0.87
0.86
0.82
0.83
0.83
0.83
0.83
0.84
0.81
0.85
0.88
0.92
0.91
0.89
0.86
0.84
0.85
0.87
0.82
0.82
0.83
0.84
0.83
0.85
0.81
0.81
0.82
0.84
0.83
0.81
0.82
0.82
0.84
0.84
0.83
0.81
0.8
0.83
0.85
0.84
0.85
0.82
0.81
0.85
0.84
0.84
0.85
0.83
0.82
0.86
0.87
0.86
0.86
0.82
0.82
0.85
0.85
0.86
0.87
0.84
0.84
0.86
0.86
0.85
0.85
0.82
0.83
0.79
0.8
0.83
0.87
0.9
0.87
0.85
0.85
0.86
0.84
0.82
0.8
0.79
0.81
0.8
0.81
0.81
0.78
0.8
0.82
0.85
0.83
0.85
0.87
0.88
0.87
0.84
0.83
0.84
0.83
0.84
0.84
0.81
0.79
0.81
0.82
0.84
0.86
0.84
0.83
0.87
0.88
0.88
0.88
0.84
0.83
0.85
0.85
0.87
0.86
0.84
0.83
0.85
0.87
0.88
0.9
0.88
0.85
0.84
0.84
0.85
0.83
0.86
0.85
0.85
0.82
0.81
0.83
0.83
0.83
0.8
0.82
0.83
0.84
0.84
0.83
0.8
0.8
0.8
0.79
0.79
0.8
0.79
0.78
0.79
0.81
0.83
0.84
0.85
0.83
0.82
0.86
0.86
0.86
0.85
0.82
0.82
0.82
0.84
0.83
0.82
0.82
0.81
0.8
0.81
0.82
0.88
1.04
1.08
1.04
0.97
1
1.03
0.97
0.94
0.92
0.86
0.84
0.84
0.85
0.86
0.87
0.87
0.83
0.84
0.86
0.86
0.87
0.86
0.82
0.81
0.82
0.82
0.83
0.84
0.83
0.84
0.84
0.87
0.88
0.88
0.84
0.84
0.85
0.86
0.86
0.87
0.87
0.84
0.81
0.83
0.83
0.84
0.82
0.8
0.81
0.84
0.89
0.9
0.88
0.88
0.84
0.83
0.85
0.86
0.85
0.83
0.81
0.83
0.81
0.82
0.83
0.81
0.81
0.85
0.85
0.87
0.87
0.88
0.84
0.82
0.84
0.86
0.89
0.87
0.84
0.87
0.89
0.89
0.89
0.88
0.85
0.84
0.85
0.86
0.86
0.85
0.85
0.81
0.82
0.82
0.83
0.84
0.8
0.81
0.82
0.83
0.83
0.83
0.81
0.8
0.82
0.83
0.85
0.83
0.82
0.82
0.85
0.87
0.86
0.85
0.82
0.83
0.82
0.8
0.81
0.77
0.78
0.8
0.81
0.84
0.84
0.85
0.83
0.82
0.85
0.89
0.91
0.9
0.86
0.87
0.9
0.87
0.89
0.84
0.83
0.84
0.86
0.84
0.82
0.83
0.87
0.87
0.88
0.84
0.84
0.85
0.87
0.87
0.87
0.86
0.84
0.83
0.85
0.86
0.87
0.86
0.83
0.82
0.83
0.82
0.85
0.84
0.82
0.81
0.85
0.84
0.84
0.84
0.81
0.81
0.82
0.83
0.85
0.81
0.82
0.83
0.85
0.85
0.85
0.82
0.85
0.85
0.86
0.86
0.84
0.82
0.85
0.86
0.86
0.85
0.82
0.83
0.86
0.86
0.88
0.88
0.83
0.83
0.84
0.86
0.85
0.84
0.83
0.81
0.82
0.84
0.85
0.83
0.82
0.85
0.87
0.88
0.88
0.84
0.82
0.84
0.84
0.83
0.83
0.8
0.8
0.81
0.82
0.83
0.84
0.84
0.82
0.81
0.85
0.86
0.87
0.83
0.82
0.84
0.84
0.82
0.84
0.81
0.84
0.83
0.85
0.85
0.84
0.81
0.85
0.89
0.91
0.9
0.87
0.84
0.87
0.87
0.89
0.87
0.83
0.83
0.91
0.92
0.95
0.93
0.91
0.91
0.94
0.92
0.89
0.84
0.81
0.81
0.82
0.84
0.85
0.84
0.88
0.96
0.99
0.99
0.92
0.88
0.91
0.91
0.89
0.87
0.84
0.84
0.83
0.84
0.84
0.83
0.82
0.82
0.84
0.87
0.89
0.89
0.87
0.86
0.89
0.88
0.85
0.83
0.81
0.81
0.81
0.82
0.81
0.79
0.81
0.83
0.85
0.87
0.85
0.85
0.92
0.93
0.92
0.93
0.86
0.86
0.87
0.89
0.86
0.84
0.87
0.86
0.86
0.86
0.83
0.8
0.83
0.83
0.84
0.87
0.83
0.81
0.84
0.84
0.84
0.84
0.82
0.8
0.84
0.84
0.86
0.85
0.84
0.82
0.81
0.82
0.84
0.84
0.84
0.81
0.82
0.82
0.84
0.84
0.86
0.84
0.82
0.85
0.87
0.87
0.87
0.82
0.83
0.83
0.82
0.83
0.81
0.79
0.81
0.82
0.84
0.84
0.82
0.79
0.83
0.82
0.83
0.84
0.85
0.82
0.83
0.84
0.85
0.84
0.84
0.81
0.82
0.83
0.85
0.85
0.84
0.81
0.85
0.84
0.84
0.86
0.83
0.82
0.84
0.83
0.83
0.83
0.8
0.8
0.81
0.82
0.85
0.83
0.83
0.81
0.82
0.86
0.87
0.88
0.84
0.83
0.84
0.86
0.86
0.86
0.83
0.82
0.83
0.84
0.85
0.84
0.81
0.81
0.82
0.81
0.83
0.82
0.78
0.78
0.79
0.8
0.84
0.85
0.81
0.82
0.84
0.87
0.89
0.84
0.82
0.83
0.84
0.85
0.85
0.82
0.81
0.82
0.84
0.84
0.84
0.82
0.81
0.82
0.82
0.82
0.84
0.82
0.8
0.82
0.83
0.84
0.84
0.81
0.82
0.83
0.85
0.85
0.85
0.82
0.81
0.81
0.82
0.82
0.84
0.81
0.8
0.83
0.83
0.85
0.84
0.84
0.81
0.79
0.81
0.83
0.89
0.86
0.84
0.9
0.93
0.92
0.9
0.86
0.81
0.82
0.82
0.82
0.81
0.8
0.82
0.86
0.9
0.93
0.88
0.89
0.9
0.9
0.88
0.86
0.83
0.81
0.82
0.82
0.82
0.82
0.8
0.81
0.81
0.81
0.8
0.81
0.79
0.79
0.8
0.8
0.82
0.81
0.8
0.82
0.84
0.85
0.83
0.81
0.81
0.83
0.83
0.84
0.81
0.81
0.83
0.83
0.84
0.83
0.83
0.81
0.8
0.8
0.81
0.82
0.84
0.81
0.8
0.83
0.83
0.86
0.85
0.81
0.79
0.81
0.81
0.82
0.83
0.84
0.8
0.81
0.83
0.83
0.84
0.83
0.8
0.82
0.83
0.85
0.86
0.84
0.82
0.81
0.81
0.82
0.81
0.8
0.79
0.81
0.82
0.84
0.83
0.85
0.81
0.81
0.83
0.84
0.85
0.83
0.8
0.8
0.82
0.85
0.86
0.87
0.85
0.82
0.85
0.86
0.85
0.85
0.82
0.82
0.82
0.82
0.82
0.82
0.8
0.79
0.81
0.8
0.82
0.84
0.82
0.81
0.84
0.85
0.86
0.86
0.83
0.83
0.82
0.83
0.83
0.83
0.81
0.81
0.83
0.84
0.85
0.86
0.83
0.86
0.86
0.86
0.86
0.84
0.81
0.82
0.83
0.82
0.84
0.82
0.8
0.81
0.82
0.82
0.83
0.84
0.82
0.82
0.84
0.85
0.86
0.85
0.83
0.81
0.83
0.83
0.83
0.81
0.8
0.82
0.82
0.83
0.84
0.82
0.82
0.8
0.81
0.83
0.86
0.91
0.92
0.9
0.86
0.89
0.93
0.91
0.89
0.85
0.83
0.85
0.86
0.87
0.83
0.82
0.85
0.85
0.85
0.86
0.84
0.81
0.83
0.84
0.83
0.83
0.82
0.81
0.81
0.83
0.82
0.85
0.83
0.84
0.81
0.82
0.82
0.82
0.81
0.8
0.8
0.8
0.8
0.82
0.82
0.82
0.8
0.86
0.89
0.88
0.88
0.83
0.82
0.84
0.86
0.86
0.85
0.83
0.84
0.85
0.88
0.88
0.86
0.84
0.83
0.82
0.81
0.84
0.83
0.9
1.02
1.02
0.98
0.94
0.92
0.91
0.88
0.85
0.85
0.81
0.8
0.82
0.83
0.86
0.87
0.86
0.85
0.88
0.87
0.9
0.85
0.81
0.79
0.8
0.8
0.86
0.9
0.89
0.89
0.89
0.94
0.94
0.91
0.86
0.84
0.84
0.82
0.84
0.84
0.84
0.85
0.83
0.84
0.84
0.86
0.86
0.86
0.85
0.82
0.84
0.85
0.84
0.86
0.85
0.81
0.81
0.81
0.82
0.82
0.81
0.8
0.82
0.85
0.86
0.87
0.83
0.81
0.84
0.86
0.87
0.87
0.84
0.81
0.82
0.81
0.81
0.8
0.82
0.78
0.76
0.74
0.76
0.79
0.78
0.76
0.77
0.75
0.75
0.74
0.74
0.72
0.71
0.7
0.7
0.68
0.68
0.68
0.66
0.67
0.66
0.66
0.66
0.65
0.65
0.64
0.64
0.64
0.64
0.64
0.65
0.65
0.67
0.68
0.7
0.73
0.75
0.77
0.79
0.79
0.79
0.78
0.83
0.83
0.83
0.77
0.76
0.77
0.82
0.9
0.94
0.92
0.94
0.89
0.82
0.79
0.8
0.8
0.84
0.86
0.88
0.82
0.8
0.82
0.81
0.83
0.84
0.85
0.82
0.8
0.84
0.87
0.86
0.85
0.85
0.82
0.81
0.81
0.83
0.84
0.84
0.84
0.81
0.81
0.84
0.85
0.91
0.9
0.89
0.86
0.83
0.84
0.85
0.84
0.84
0.85
0.83
0.82
0.84
0.87
0.87
0.85
0.83
0.8
0.81
0.79
0.79
0.8
0.81
0.8
0.81
0.86
0.88
0.88
0.84
0.83
0.84
0.84
0.85
0.83
0.8
0.8
0.83
0.84
0.85
0.84
0.8
0.8
0.81
0.81
0.82
0.82
0.82
0.81
0.84
0.89
0.91
0.91
0.9
0.85
0.87
0.86
0.86
0.87
0.85
0.77
0.7
0.66
0.67
0.76
1.06
0.79
0.92
0.93
0.99
1.09
1.04
0.98
1
1.02
0.98
0.97
0.87
0.86
0.99
0.97
0.97
0.91
0.84
0.87
0.95
0.96
0.98
0.98
0.92
0.9
0.99
1
0.99
0.99
0.95
0.91
0.96
0.99
0.95
0.95
0.91
0.88
0.89
0.91
0.89
0.91
0.87
0.83
0.86
0.9
0.9
0.84
0.83
0.85
0.82
0.81
0.78
0.79
0.77
0.76
0.75
0.73
0.72
0.71
0.73
0.73
0.75
0.81
1.1
0.55
0.81
0.66
0.89
0.76
0.73
0.71
0.69
0.67
0.65
0.65
0.62
0.62
0.61
0.61
0.6
0.61
0.62
0.62
0.63
0.63
0.63
0.64
0.66
0.68
0.71
0.71
0.72
0.71
0.73
0.73
0.73
0.73
0.72
0.76
0.77
0.81
0.8
0.8
0.79
0.8
0.77
0.77
0.78
0.78
0.8
0.85
0.84
0.84
0.8
0.82
0.8
0.81
0.83
0.84
0.82
0.83
0.93
0.95
0.97
0.93
0.89
0.84
0.82
0.8
0.81
0.83
0.86
0.85
0.84
0.88
0.89
0.91
0.88
0.86
0.83
0.82
0.82
0.82
0.83
0.82
0.82
0.81
0.8
0.82
0.82
0.85
0.85
0.83
0.83
0.81
0.8
0.81
0.83
0.83
0.83
0.8
0.81
0.81
0.8
0.8
0.78
0.78
0.78
0.77
0.78
0.8
0.78
0.77
0.77
0.78
0.79
0.79
0.79
0.78
0.78
0.79
0.81
0.81
0.82
0.8
0.81
0.82
0.84
0.84
0.85
0.82
0.82
0.82
0.82
0.83
0.82
0.82
0.82
0.86
0.87
0.88
0.86
0.84
0.84
0.85
0.84
0.85
0.84
0.81
0.8
0.82
0.85
0.84
0.85
0.83
0.83
0.84
0.85
0.86
0.86
0.84
0.83
0.8
0.8
0.81
0.79
0.8
0.78
0.78
0.79
0.85
0.88
0.89
0.89
0.88
0.85
0.82
0.83
0.81
0.8
0.81
0.8
0.79
0.82
0.84
0.85
0.85
0.8
0.8
0.8
0.8
0.8
0.8
0.79
0.78
0.78
0.79
0.79
0.79
0.81
0.77
0.78
0.79
0.81
0.84
0.91
0.9
0.87
0.89
0.92
0.93
0.92
0.88
0.85
0.84
0.84
0.84
0.84
0.86
0.84
0.82
0.83
0.86
0.9
0.9
0.88
0.84
0.85
0.86
0.85
0.87
0.86
0.83
0.83
0.85
0.86
0.87
0.85
0.82
0.8
0.81
0.82
0.81
0.81
0.81
0.85
0.86
0.88
0.86
0.84
0.83
0.84
0.82
0.82
0.81
0.79
0.79
0.78
0.8
0.82
0.86
0.85
0.85
0.86
0.9
0.94
0.9
0.87
0.83
0.82
0.81
0.82
0.83
0.84
0.85
0.83
0.89
0.93
0.93
0.9
0.87
0.86
0.88
0.88
0.85
0.84
0.84
0.84
0.84
0.85
0.84
0.82
0.82
0.84
0.85
0.86
0.86
0.83
0.81
0.82
0.82
0.83
0.83
0.8
0.79
0.81
0.81
0.82
0.82
0.83
0.83
0.81
0.83
0.84
0.86
0.86
0.83
0.85
0.86
0.88
0.86
0.84
0.82
0.83
0.83
0.84
0.84
0.83
0.81
0.82
0.81
0.84
0.82
0.81
0.83
0.84
0.85
0.86
0.85
0.82
0.84
0.84
0.86
0.85
0.85
0.81
0.8
0.82
0.81
0.83
0.84
0.83
0.82
0.81
0.85
0.86
0.88
0.87
0.85
0.82
0.83
0.84
0.83
0.83
0.81
0.81
0.81
0.82
0.83
0.85
0.83
0.8
0.81
0.82
0.82
0.84
0.85
0.82
0.81
0.84
0.83
0.83
0.83
0.81
0.8
0.81
0.81
0.84
0.86
0.84
0.81
0.83
0.83
0.83
0.83
0.82
0.79
0.79
0.78
0.8
0.79
0.79
0.79
0.8
0.81
0.83
0.83
0.84
0.82
0.82
0.81
0.82
0.83
0.81
0.8
0.81
0.83
0.83
0.83
0.81
0.79
0.79
0.79
0.82
0.86
0.88
0.91
0.89
0.88
0.91
0.96
0.91
0.87
0.85
0.84
0.83
0.86
0.84
0.85
0.82
0.83
0.84
0.86
0.87
0.88
0.83
0.82
0.82
0.82
0.81
0.83
0.81
0.79
0.83
0.84
0.88
0.85
0.81
0.8
0.8
0.79
0.8
0.79
0.79
0.79
0.82
0.85
0.86
0.88
0.84
0.84
0.85
0.86
0.87
0.85
0.81
0.82
0.82
0.82
0.82
0.83
0.85
0.81
0.81
0.83
0.83
0.83
0.86
0.82
0.8
0.82
0.81
0.81
0.84
0.8
0.81
0.84
0.85
0.87
0.87
0.86
0.84
0.84
0.84
0.85
0.83
0.83
0.8
0.79
0.81
0.8
0.8
0.81
0.82
0.81
0.8
0.82
0.83
0.84
0.84
0.83
0.81
0.8
0.8
0.81
0.82
0.8
0.79
0.81
0.82
0.84
0.84
0.83
0.81
0.85
0.86
0.88
0.86
0.83
0.82
0.82
0.83
0.83
0.82
0.82
0.81
0.79
0.8
0.79
0.81
0.82
0.8
0.8
0.8
0.81
0.83
0.84
0.84
0.81
0.81
0.81
0.83
0.83
0.83
0.82
0.81
0.83
0.84
0.86
0.89
0.87
0.84
0.84
0.85
0.83
0.83
0.82
0.79
0.79
0.79
0.81
0.82
0.8
0.8
0.8
0.81
0.82
0.83
0.82
0.8
0.78
0.78
0.77
0.77
0.78
0.77
0.76
0.77
0.78
0.78
0.79
0.78
0.77
0.8
0.84
0.88
0.88
0.89
0.86
0.83
0.82
0.82
0.84
0.84
0.83
0.82
0.85
0.87
0.86
0.84
0.81
0.8
0.79
0.78
0.78
0.76
0.76
0.77
0.76
0.77
0.77
0.76
0.78
0.8
0.81
0.82
0.8
0.8
0.8
0.8
0.79
0.79
0.78
0.77
0.78
0.78
0.8
0.8
0.78
0.78
0.8
0.79
0.81
0.82
0.8
0.8
0.82
0.85
0.87
0.85
0.83
0.81
0.83
0.81
0.81
0.8
0.8
0.81
0.82
0.82
0.81
0.8
0.83
0.82
0.83
0.83
0.82
0.82
0.82
0.83
0.84
0.83
0.81
0.81
0.81
0.83
0.83
0.84
0.84
0.81
0.81
0.81
0.82
0.81
0.81
0.79
0.78
0.79
0.81
0.82
0.84
0.82
0.8
0.81
0.8
0.82
0.82
0.83
0.81
0.79
0.81
0.8
0.81
0.81
0.79
0.81
0.81
0.81
0.79
0.79
0.81
0.82
0.82
0.81
0.79
0.8
0.81
0.8
0.81
0.8
0.8
0.8
0.8
0.81
0.82
0.81
0.83
0.82
0.85
0.84
0.82
0.81
0.82
0.82
0.82
0.83
0.83
0.8
0.81
0.8
0.79
0.79
0.78
0.77
0.75
0.74
0.75
0.74
0.79
0.77
0.79
0.83
0.88
0.93
0.87
0.87
0.88
0.91
0.9
0.86
0.84
0.83
0.81
0.81
0.8
0.8
0.78
0.78
0.78
0.79
0.81
0.81
0.8
0.83
0.85
0.88
0.85
0.84
0.82
0.83
0.81
0.82
0.82
0.8
0.83
0.84
0.88
0.89
0.88
0.86
0.85
0.85
0.85
0.85
0.85
0.83
0.8
0.82
0.81
0.82
0.82
0.82
0.8
0.81
0.81
0.81
0.81
0.79
0.78
0.77
0.79
0.79
0.8
0.8
0.8
0.81
0.81
0.82
0.82
0.82
0.8
0.79
0.8
0.8
0.82
0.8
0.8
0.77
0.76
0.75
0.75
0.74
0.74
0.76
0.77
0.83
0.85
0.83
0.81
0.83
0.85
0.83
0.83
0.81
0.83
0.83
0.85
0.86
0.82
0.8
0.81
0.81
0.81
0.82
0.84
0.81
0.82
0.83
0.84
0.83
0.84
0.84
0.81
0.83
0.84
0.84
0.85
0.84
0.81
0.81
0.78
0.78
0.79
0.86
0.87
0.85
0.89
0.92
0.96
0.96
0.92
0.88
0.87
0.85
0.85
0.84
0.84
0.82
0.82
0.82
0.81
0.82
0.84
0.82
0.81
0.81
0.83
0.83
0.83
0.82
0.8
0.79
0.81
0.82
0.82
0.83
0.83
0.81
0.84
0.87
0.87
0.87
0.84
0.82
0.83
0.82
0.81
0.83
0.82
0.8
0.81
0.82
0.82
0.82
0.82
0.82
0.83
0.85
0.86
0.85
0.84
0.81
0.82
0.81
0.82
0.82
0.84
0.82
0.81
0.82
0.83
0.84
0.86
0.84
0.82
0.83
0.83
0.82
0.82
0.8
0.8
0.82
0.83
0.85
0.85
0.84
0.83
0.81
0.82
0.81
0.81
0.82
0.79
0.78
0.81
0.82
0.85
0.87
0.87
0.86
0.84
0.86
0.87
0.86
0.84
0.83
0.83
0.83
0.83
0.81
0.8
0.82
0.83
0.83
0.83
0.81
0.79
0.8
0.8
0.82
0.81
0.79
0.8
0.8
0.82
0.82
0.82
0.81
0.83
0.82
0.82
0.82
0.81
0.8
0.8
0.8
0.82
0.81
0.82
0.79
0.79
0.8
0.79
0.81
0.81
0.8
0.81
0.83
0.83
0.84
0.82
0.79
0.78
0.77
0.79
0.8
0.82
0.84
0.81
0.81
0.84
0.88
0.86
0.86
0.86
0.82
0.79
0.81
0.79
0.79
0.78
0.78
0.8
0.81
0.8
0.82
0.82
0.83
0.83
0.82
0.82
0.83
0.82
0.8
0.78
0.78
0.76
0.76
0.79
0.81
0.82
0.83
0.9
0.92
0.91
0.89
0.87
0.86
0.86
0.86
0.84
0.84
0.82
0.82
0.83
0.82
0.81
0.79
0.79
0.79
0.8
0.81
0.83
0.79
0.81
0.84
0.86
0.83
0.8
0.8
0.8
0.79
0.79
0.79
0.77
0.77
0.78
0.8
0.81
0.79
0.8
0.8
0.8
0.81
0.83
0.81
0.8
0.78
0.79
0.79
0.8
0.81
0.82
0.79
0.79
0.8
0.83
0.84
0.86
0.84
0.83
0.82
0.83
0.85
0.83
0.82
0.83
0.82
0.82
0.83
0.84
0.82
0.82
0.85
0.88
0.91
0.92
0.88
0.85
0.82
0.82
0.82
0.83
0.83
0.79
0.8
0.79
0.82
0.84
0.83
0.8
0.82
0.81
0.8
0.8
0.79
0.77
0.78
0.79
0.8
0.82
0.81
0.79
0.82
0.81
0.82
0.79
0.78
0.78
0.78
0.79
0.79
0.78
0.78
0.81
0.84
0.85
0.85
0.83
0.81
0.8
0.79
0.8
0.79
0.81
0.79
0.78
0.81
0.83
0.87
0.87
0.84
0.81
0.82
0.82
0.82
0.81
0.79
0.79
0.8
0.8
0.84
0.85
0.81
0.8
0.82
0.83
0.83
0.82
0.81
0.82
0.8
0.82
0.83
0.8
0.81
0.85
0.9
0.94
0.95
0.89
0.88
0.88
0.89
0.86
0.83
0.81
0.81
0.85
0.86
0.84
0.83
0.83
0.82
0.84
0.83
0.82
0.82
0.83
0.84
0.83
0.83
0.81
0.78
0.79
0.78
0.78
0.79
0.8
0.78
0.77
0.76
0.77
0.79
0.82
0.82
0.82
0.88
0.93
0.95
0.94
0.88
0.84
0.83
0.83
0.85
0.83
0.83
0.81
0.81
0.82
0.83
0.84
0.85
0.82
0.81
0.81
0.81
0.84
0.83
0.82
0.79
0.78
0.79
0.79
0.81
0.83
0.83
0.81
0.82
0.83
0.86
0.85
0.83
0.82
0.82
0.83
0.83
0.81
0.81
0.81
0.8
0.81
0.81
0.78
0.8
0.8
0.82
0.84
0.83
0.81
0.8
0.81
0.83
0.83
0.83
0.81
0.8
0.82
0.81
0.83
0.82
0.8
0.79
0.8
0.8
0.81
0.79
0.79
0.79
0.8
0.82
0.85
0.85
0.83
0.81
0.79
0.81
0.82
0.83
0.82
0.81
0.8
0.81
0.82
0.85
0.84
0.82
0.82
0.84
0.88
0.88
0.87
0.85
0.85
0.85
0.85
0.84
0.84
0.8
0.81
0.81
0.82
0.84
0.83
0.82
0.81
0.82
0.83
0.85
0.83
0.81
0.81
0.82
0.83
0.82
0.84
0.83
0.81
0.83
0.84
0.85
0.84
0.84
0.8
0.82
0.79
0.8
0.79
0.81
0.81
0.8
0.81
0.85
0.87
0.87
0.88
0.85
0.83
0.83
0.84
0.83
0.82
0.8
0.8
0.8
0.81
0.8
0.79
0.79
0.8
0.82
0.81
0.82
0.79
0.8
0.79
0.78
0.79
0.78
0.78
0.8
0.81
0.82
0.84
0.85
0.82
0.81
0.8
0.8
0.8
0.78
0.77
0.79
0.78
0.81
0.8
0.8
0.79
0.78
0.79
0.8
0.8
0.8
0.81
0.84
0.84
0.84
0.83
0.81
0.81
0.79
0.8
0.79
0.82
0.82
0.83
0.86
0.87
0.92
0.93
0.89
0.85
0.87
0.87
0.85
0.84
0.83
0.81
0.79
0.8
0.78
0.79
0.79
0.79
0.78
0.8
0.81
0.81
0.8
0.78
0.79
0.78
0.79
0.78
0.78
0.78
0.79
0.81
0.82
0.82
0.81
0.79
0.78
0.78
0.79
0.78
0.78
0.78
0.76
0.78
0.77
0.8
0.81
0.83
0.82
0.81
0.82
0.84
0.83
0.82
0.79
0.78
0.77
0.79
0.79
0.8
0.78
0.79
0.82
0.84
0.86
0.83
0.79
0.79
0.77
0.79
0.8
0.8
0.79
0.79
0.82
0.83
0.84
0.84
0.81
0.79
0.82
0.82
0.83
0.81
0.79
0.78
0.78
0.78
0.79
0.78
0.76
0.77
0.79
0.82
0.84
0.83
0.8
0.81
0.81
0.82
0.81
0.81
0.78
0.77
0.78
0.78
0.79
0.77
0.76
0.74
0.73
0.73
0.73
0.74
0.77
0.77
0.76
0.78
0.82
0.83
0.83
0.79
0.78
0.8
0.79
0.79
0.79
0.77
0.76
0.75
0.74
0.75
0.75
0.76
0.75
0.74
0.75
0.74
0.77
0.79
0.8
0.79
0.79
0.8
0.8
0.81
0.82
0.83
0.82
0.79
0.81
0.81
0.81
0.82
0.79
0.78
0.78
0.77
0.78
0.79
0.79
0.77
0.76
0.76
0.75
0.77
0.78
0.77
0.76
0.75
0.76
0.76
0.76
0.78
0.78
0.76
0.75
0.75
0.77
0.77
0.77
0.77
0.76
0.76
0.75
0.76
0.76
0.75
0.75
0.75
0.76
0.77
0.78
0.77
0.77
0.76
0.76
0.77
0.79
0.78
0.76
0.75
0.77
0.78
0.78
0.77
0.76
0.76
0.77
0.77
0.76
0.76
0.75
0.75
0.75
0.77
0.79
0.79
0.79
0.8
0.82
0.82
0.81
0.81
0.78
0.78
0.78
0.78
0.79
0.77
0.76
0.76
0.77
0.77
0.78
0.78
0.77
0.77
0.79
0.79
0.79
0.79
0.78
0.78
0.77
0.78
0.78
0.78
0.76
0.8
0.84
0.88
0.87
0.83
0.81
0.77
0.76
0.77
0.82
0.86
0.83
0.81
0.84
0.85
0.85
0.83
0.81
0.79
0.78
0.77
0.78
0.77
0.76
0.74
0.75
0.74
0.73
0.72
0.72
0.71
0.72
0.73
0.75
0.75
0.76
0.8
0.82
0.84
0.86
0.85
0.86
0.85
0.82
0.84
0.83
0.83
0.82
0.82
0.79
0.79
0.8
0.79
0.8
0.8
0.79
0.79
0.78
0.78
0.76
0.76
0.77
0.78
0.76
0.79
0.81
0.84
0.83
0.8
0.82
0.83
0.85
0.83
0.81
0.79
0.79
0.79
0.79
0.8
0.77
0.77
0.75
0.75
0.76
0.78
0.76
0.79
0.83
0.83
0.86
0.84
0.85
0.81
0.79
0.79
0.8
0.8
0.79
0.77
0.81
0.81
0.82
0.8
0.81
0.83
0.82
0.83
0.8
0.79
0.79
0.79
0.8
0.81
0.81
0.79
0.79
0.79
0.79
0.78
0.76
0.77
0.77
0.83
0.9
0.94
0.91
0.87
0.93
0.98
0.95
0.91
0.88
0.84
0.83
0.82
0.8
0.78
0.76
0.78
0.79
0.8
0.8
0.79
0.82
0.83
0.85
0.83
0.83
0.81
0.82
0.83
0.84
0.83
0.83
0.82
0.81
0.78
0.8
0.8
0.81
0.81
0.8
0.83
0.86
0.87
0.86
0.86
0.83
0.83
0.84
0.86
0.84
0.84
0.82
0.8
0.8
0.79
0.79
0.79
0.79
0.77
0.75
0.78
0.78
0.78
0.8
0.84
0.87
0.86
0.86
0.84
0.88
0.89
0.9
0.86
0.83
0.82
0.82
0.82
0.81
0.8
0.78
0.79
0.79
0.81
0.82
0.8
0.79
0.79
0.8
0.82
0.83
0.8
0.8
0.78
0.77
0.81
0.87
0.95
0.93
0.91
0.9
0.95
0.93
0.91
0.85
0.83
0.82
0.82
0.83
0.81
0.81
0.81
0.81
0.83
0.85
0.83
0.83
0.84
0.86
0.85
0.84
0.85
0.84
0.83
0.84
0.82
0.79
0.82
0.84
0.86
0.85
0.82
0.86
0.87
0.89
0.89
0.85
0.85
0.86
0.86
0.86
0.86
0.82
0.81
0.81
0.81
0.82
0.83
0.83
0.83
0.81
0.81
0.84
0.86
0.86
0.87
0.85
0.83
0.85
0.86
0.83
0.82
0.8
0.79
0.8
0.81
0.84
0.86
0.86
0.84
0.84
0.86
0.87
0.87
0.85
0.83
0.8
0.8
0.79
0.8
0.82
0.83
0.82
0.8
0.82
0.83
0.85
0.86
0.84
0.82
0.83
0.85
0.84
0.82
0.8
0.8
0.81
0.8
0.81
0.83
0.81
0.8
0.83
0.84
0.86
0.85
0.84
0.81
0.8
0.78
0.8
0.81
0.79
0.8
0.79
0.8
0.83
0.79
0.79
0.76
0.77
0.78
0.8
0.8
0.8
0.83
0.85
0.85
0.81
0.82
0.83
0.84
0.84
0.82
0.81
0.81
0.82
0.84
0.86
0.88
0.83
0.83
0.84
0.82
0.83
0.83
0.81
0.8
0.82
0.83
0.8
0.8
0.78
0.8
0.82
0.83
0.84
0.83
0.81
0.84
0.86
0.85
0.87
0.85
0.81
0.84
0.84
0.84
0.84
0.82
0.82
0.85
0.87
0.88
0.88
0.84
0.83
0.84
0.85
0.84
0.82
0.81
0.83
0.83
0.83
0.83
0.83
0.82
0.82
0.83
0.84
0.84
0.83
0.83
0.81
0.8
0.83
0.86
0.9
0.88
0.88
0.88
0.89
0.87
0.86
0.84
0.82
0.84
0.84
0.85
0.85
0.86
0.82
0.81
0.82
0.83
0.84
0.82
0.81
0.8
0.81
0.83
0.86
0.85
0.83
0.84
0.86
0.87
0.88
0.86
0.84
0.83
0.83
0.84
0.84
0.85
0.83
0.8
0.82
0.81
0.81
0.81
0.8
0.8
0.82
0.82
0.81
0.82
0.81
0.8
0.83
0.85
0.87
0.86
0.83
0.82
0.84
0.84
0.85
0.85
0.84
0.83
0.81
0.81
0.82
0.81
0.82
0.81
0.8
0.8
0.82
0.84
0.86
0.86
0.84
0.84
0.87
0.86
0.85
0.84
0.82
0.83
0.86
0.88
0.88
0.84
0.83
0.85
0.85
0.85
0.86
0.83
0.81
0.81
0.81
0.82
0.83
0.8
0.82
0.83
0.85
0.84
0.84
0.82
0.79
0.8
0.79
0.8
0.79
0.78
0.78
0.79
0.82
0.85
0.88
0.85
0.86
0.86
0.85
0.85
0.82
0.82
0.81
0.85
0.85
0.87
0.87
0.84
0.84
0.86
0.88
0.84
0.79
0.76
0.75
0.73
0.76
0.85
1.05
1.1
1.11
1.01
0.96
0.95
0.93
0.9
0.88
0.86
0.82
0.82
0.82
0.79
0.78
0.78
0.77
0.77
0.77
0.77
0.77
0.76
0.78
0.78
0.78
0.81
0.84
0.86
0.83
0.83
0.85
0.88
0.86
0.85
0.85
0.83
0.81
0.8
0.79
0.81
0.8
0.82
0.82
0.8
0.79
0.8
0.8
0.82
0.82
0.82
0.79
0.79
0.79
0.79
0.8
0.81
0.79
0.77
0.78
0.79
0.82
0.83
0.85
0.84
0.81
0.83
0.85
0.88
0.87
0.83
0.8
0.78
0.78
0.78
0.79
0.79
0.82
0.86
0.87
0.85
0.86
0.87
0.86
0.83
0.82
0.79
0.79
0.79
0.8
0.82
0.81
0.8
0.82
0.84
0.85
0.85
0.83
0.81
0.82
0.81
0.83
0.82
0.8
0.78
0.79
0.8
0.83
0.83
0.81
0.82
0.82
0.84
0.86
0.86
0.84
0.82
0.82
0.82
0.85
0.83
0.8
0.78
0.77
0.81
0.85
0.86
0.86
0.93
0.97
0.96
0.94
0.91
0.85
0.86
0.83
0.83
0.81
0.81
0.79
0.78
0.8
0.82
0.84
0.84
0.83
0.81
0.82
0.84
0.82
0.82
0.79
0.78
0.77
0.77
0.79
0.79
0.78
0.81
0.84
0.87
0.92
0.9
0.87
0.84
0.83
0.84
0.81
0.8
0.81
0.82
0.84
0.83
0.83
0.82
0.82
0.83
0.83
0.83
0.8
0.79
0.8
0.8
0.82
0.83
0.81
0.82
0.83
0.84
0.86
0.85
0.83
0.82
0.82
0.82
0.84
0.86
0.84
0.83
0.85
0.86
0.88
0.89
0.85
0.82
0.82
0.84
0.85
0.85
0.85
0.83
0.8
0.8
0.8
0.82
0.83
0.82
0.84
0.84
0.88
0.87
0.88
0.83
0.84
0.83
0.84
0.84
0.84
0.79
0.77
0.78
0.79
0.81
0.82
0.83
0.87
0.93
0.94
0.96
0.92
0.87
0.84
0.84
0.84
0.86
0.85
0.85
0.83
0.83
0.83
0.84
0.84
0.86
0.86
0.82
0.81
0.81
0.81
0.8
0.8
0.79
0.8
0.81
0.85
0.85
0.83
0.81
0.84
0.85
0.87
0.87
0.84
0.83
0.83
0.86
0.86
0.83
0.8
0.8
0.81
0.84
0.84
0.85
0.83
0.84
0.86
0.85
0.82
0.83
0.84
0.85
0.86
0.83
0.8
0.82
0.81
0.83
0.84
0.88
0.85
0.82
0.82
0.83
0.82
0.82
0.81
0.81
0.8
0.82
0.82
0.81
0.8
0.79
0.81
0.84
0.85
0.84
0.82
0.81
0.82
0.82
0.83
0.83
0.82
0.81
0.82
0.85
0.87
0.87
0.83
0.82
0.82
0.82
0.83
0.82
0.79
0.8
0.81
0.86
0.87
0.83
0.83
0.85
0.86
0.85
0.83
0.83
0.83
0.83
0.83
0.83
0.81
0.81
0.82
0.82
0.83
0.81
0.83
0.8
0.79
0.8
0.8
0.79
0.79
0.79
0.82
0.81
0.83
0.83
0.81
0.81
0.83
0.83
0.83
0.84
0.82
0.81
0.82
0.82
0.84
0.84
0.84
0.83
0.82
0.84
0.86
0.88
0.87
0.87
0.84
0.81
0.81
0.79
0.8
0.81
0.81
0.8
0.83
0.86
0.89
0.88
0.87
0.84
0.83
0.85
0.84
0.83
0.82
0.8
0.82
0.82
0.82
0.81
0.82
0.84
0.85
0.86
0.85
0.83
0.84
0.85
0.84
0.84
0.83
0.83
0.85
0.86
0.88
0.88
0.85
0.85
0.83
0.81
0.82
0.83
0.87
0.9
0.88
0.88
0.89
0.89
0.9
0.9
0.86
0.85
0.86
0.85
0.86
0.83
0.83
0.84
0.86
0.86
0.84
0.83
0.84
0.84
0.85
0.86
0.82
0.81
0.82
0.8
0.81
0.82
0.81
0.79
0.82
0.83
0.85
0.85
0.83
0.82
0.84
0.84
0.84
0.84
0.83
0.81
0.81
0.81
0.83
0.83
0.83
0.84
0.8
0.83
0.83
0.86
0.86
0.83
0.82
0.83
0.86
0.86
0.81
0.83
0.84
0.84
0.84
0.84
0.85
0.83
0.87
0.89
0.89
0.89
0.84
0.85
0.84
0.83
0.84
0.83
0.8
0.82
0.81
0.85
0.84
0.83
0.82
0.84
0.85
0.86
0.83
0.82
0.83
0.83
0.85
0.84
0.83
0.82
0.8
0.82
0.82
0.83
0.83
0.83
0.82
0.82
0.83
0.83
0.81
0.8
0.81
0.83
0.85
0.84
0.83
0.81
0.82
0.84
0.83
0.84
0.85
0.82
0.82
0.81
0.81
0.82
0.82
0.8
0.8
0.83
0.83
0.84
0.83
0.82
0.83
0.83
0.84
0.85
0.86
0.84
0.82
0.82
0.84
0.84
0.86
0.84
0.82
0.83
0.86
0.89
0.9
0.89
0.87
0.85
0.85
0.85
0.85
0.84
0.82
0.8
0.82
0.81
0.83
0.84
0.82
0.82
0.84
0.85
0.83
0.83
0.84
0.83
0.84
0.85
0.85
0.82
0.81
0.79
0.8
0.8
0.81
0.85
0.88
0.93
0.98
0.93
0.94
0.93
0.93
0.91
0.87
0.86
0.86
0.84
0.82
0.81
0.81
0.8
0.8
0.8
0.82
0.79
0.79
0.81
0.82
0.85
0.86
0.86
0.83
0.82
0.82
0.83
0.84
0.82
0.82
0.82
0.83
0.85
0.83
0.83
0.84
0.86
0.88
0.84
0.83
0.84
0.85
0.85
0.84
0.83
0.82
0.83
0.84
0.87
0.84
0.82
0.8
0.82
0.83
0.85
0.86
0.84
0.85
0.87
0.88
0.87
0.84
0.82
0.83
0.84
0.85
0.86
0.85
0.83
0.82
0.83
0.82
0.84
0.83
0.81
0.81
0.81
0.83
0.87
0.84
0.84
0.82
0.84
0.87
0.9
0.9
0.87
0.87
0.89
0.85
0.84
0.81
0.8
0.83
0.88
0.99
1
0.91
0.89
0.89
0.91
0.9
0.86
0.82
0.83
0.82
0.84
0.84
0.81
0.79
0.8
0.8
0.79
0.8
0.79
0.78
0.79
0.78
0.79
0.79
0.78
0.78
0.79
0.79
0.81
0.82
0.82
0.8
0.79
0.81
0.81
0.83
0.8
0.82
0.83
0.81
0.8
0.78
0.76
0.77
0.76
0.77
0.8
0.78
0.78
0.85
0.92
0.94
0.89
0.84
0.84
0.82
0.83
0.84
0.84
0.83
0.8
0.82
0.85
0.89
0.9
0.87
0.85
0.84
0.83
0.84
0.82
0.78
0.79
0.79
0.8
0.81
0.83
0.82
0.82
0.84
0.86
0.91
0.89
0.85
0.85
0.84
0.83
0.81
0.8
0.79
0.81
0.85
0.89
0.94
0.91
0.89
0.92
0.91
0.89
0.85
0.84
0.83
0.82
0.81
0.82
0.83
0.84
0.82
0.82
0.82
0.84
0.86
0.86
0.83
0.8
0.8
0.8
0.82
0.81
0.84
0.85
0.86
0.85
0.83
0.83
0.85
0.85
0.85
0.85
0.83
0.81
0.82
0.83
0.82
0.81
0.81
0.84
0.84
0.85
0.84
0.82
0.82
0.83
0.83
0.88
0.84
0.81
0.83
0.82
0.84
0.84
0.81
0.82
0.83
0.85
0.87
0.83
0.82
0.83
0.84
0.84
0.82
0.8
0.79
0.82
0.82
0.85
0.84
0.83
0.83
0.84
0.85
0.87
0.88
0.86
0.83
0.81
0.83
0.85
0.85
0.84
0.83
0.83
0.86
0.88
0.91
0.89
0.85
0.82
0.85
0.84
0.84
0.84
0.82
0.81
0.84
0.82
0.84
0.84
0.82
0.84
0.85
0.85
0.82
0.81
0.82
0.81
0.83
0.83
0.81
0.81
0.84
0.86
0.86
0.85
0.89
0.92
0.94
0.89
0.85
0.84
0.82
0.83
0.83
0.82
0.8
0.82
0.83
0.83
0.84
0.85
0.82
0.82
0.83
0.83
0.83
0.81
0.8
0.79
0.8
0.81
0.81
0.81
0.8
0.81
0.82
0.83
0.83
0.83
0.83
0.85
0.86
0.85
0.83
0.81
0.83
0.83
0.83
0.83
0.82
0.81
0.82
0.84
0.83
0.83
0.8
0.8
0.8
0.79
0.8
0.8
0.79
0.8
0.81
0.81
0.8
0.83
0.81
0.8
0.82
0.81
0.81
0.81
0.79
0.8
0.81
0.82
0.81
0.81
0.84
0.83
0.84
0.83
0.85
0.81
0.84
0.84
0.84
0.85
0.84
0.81
0.82
0.81
0.81
0.79
0.79
0.78
0.78
0.8
0.81
0.8
0.82
0.83
0.87
0.85
0.85
0.82
0.83
0.83
0.82
0.83
0.8
0.8
0.8
0.8
0.8
0.79
0.79
0.8
0.83
0.85
0.81
0.82
0.83
0.83
0.83
0.82
0.81
0.8
0.79
0.8
0.8
0.8
0.81
0.79
0.79
0.82
0.8
0.82
0.82
0.82
0.84
0.84
0.84
0.83
0.81
0.81
0.83
0.83
0.84
0.82
0.8
0.81
0.81
0.84
0.84
0.83
0.82
0.81
0.82
0.81
0.83
0.8
0.79
0.82
0.81
0.83
0.84
0.84
0.82
0.84
0.86
0.84
0.84
0.82
0.81
0.82
0.83
0.82
0.81
0.8
0.83
0.85
0.87
0.86
0.87
0.83
0.85
0.84
0.87
0.86
0.84
0.83
0.86
0.88
0.89
0.87
0.85
0.84
0.85
0.83
0.84
0.83
0.8
0.8
0.81
0.82
0.84
0.86
0.82
0.82
0.84
0.87
0.85
0.82
0.84
0.84
0.84
0.82
0.82
0.82
0.79
0.79
0.77
0.76
0.77
0.81
0.85
0.85
0.83
0.87
0.89
0.87
0.84
0.84
0.82
0.82
0.78
0.78
0.78
0.8
0.79
0.81
0.83
0.87
0.9
0.89
0.85
0.86
0.84
0.84
0.85
0.83
0.83
0.81
0.84
0.83
0.86
0.82
0.82
0.83
0.83
0.83
0.82
0.85
0.85
0.84
0.83
0.82
0.83
0.85
0.85
0.84
0.81
0.79
0.78
0.76
0.76
0.77
0.76
0.77
0.77
0.78
0.8
0.82
0.83
0.81
0.82
0.83
0.84
0.84
0.82
0.82
0.82
0.83
0.83
0.81
0.79
0.8
0.8
0.82
0.84
0.83
0.82
0.83
0.86
0.85
0.83
0.82
0.85
0.85
0.84
0.82
0.81
0.82
0.82
0.8
0.81
0.81
0.82
0.83
0.82
0.84
0.86
0.89
0.89
0.85
0.82
0.8
0.82
0.82
0.84
0.84
0.82
0.82
0.83
0.84
0.86
0.84
0.83
0.84
0.82
0.81
0.78
0.75
0.77
0.8
0.87
0.94
0.94
1
1
0.96
0.9
0.86
0.85
0.84
0.83
0.83
0.8
0.79
0.78
0.78
0.78
0.79
0.8
0.83
0.83
0.82
0.82
0.85
0.84
0.86
0.86
0.83
0.83
0.84
0.85
0.85
0.81
0.82
0.81
0.82
0.85
0.87
0.84
0.83
0.85
0.89
0.89
0.88
0.84
0.83
0.85
0.85
0.85
0.83
0.82
0.82
0.83
0.85
0.85
0.81
0.78
0.79
0.81
0.8
0.84
0.82
0.81
0.78
0.8
0.82
0.84
0.87
0.84
0.83
0.84
0.86
0.89
0.86
0.83
0.82
0.82
0.82
0.83
0.81
0.8
0.8
0.82
0.82
0.81
0.8
0.8
0.81
0.83
0.84
0.84
0.84
0.83
0.83
0.81
0.83
0.85
0.84
0.82
0.92
1.01
0.99
0.9
0.89
0.88
0.86
0.85
0.84
0.81
0.8
0.81
0.81
0.82
0.79
0.79
0.82
0.82
0.85
0.85
0.82
0.81
0.82
0.83
0.85
0.86
0.84
0.84
0.87
0.87
0.88
0.86
0.85
0.8
0.79
0.79
0.81
0.84
0.81
0.81
0.82
0.86
0.89
0.89
0.86
0.85
0.85
0.85
0.85
0.81
0.78
0.78
0.78
0.79
0.81
0.82
0.82
0.85
0.87
0.88
0.87
0.84
0.83
0.84
0.84
0.85
0.84
0.81
0.81
0.81
0.8
0.82
0.82
0.82
0.82
0.83
0.85
0.88
0.88
0.89
0.87
0.84
0.87
0.87
0.87
0.85
0.83
0.84
0.85
0.86
0.84
0.82
0.83
0.83
0.82
0.82
0.8
0.79
0.79
0.8
0.81
0.81
0.79
0.8
0.82
0.83
0.83
0.83
0.82
0.82
0.82
0.83
0.86
0.83
0.82
0.85
0.85
0.86
0.84
0.81
0.81
0.82
0.83
0.83
0.83
0.82
0.82
0.82
0.83
0.84
0.8
0.81
0.81
0.82
0.81
0.81
0.8
0.78
0.77
0.8
0.83
0.87
0.92
0.88
0.85
0.86
0.86
0.86
0.85
0.83
0.81
0.82
0.82
0.84
0.83
0.82
0.81
0.81
0.82
0.87
0.86
0.83
0.82
0.84
0.83
0.83
0.83
0.81
0.82
0.81
0.84
0.84
0.83
0.81
0.8
0.82
0.8
0.82
0.83
0.81
0.8
0.81
0.81
0.82
0.83
0.81
0.81
0.83
0.86
0.86
0.89
0.86
0.86
0.86
0.86
0.88
0.86
0.86
0.83
0.82
0.82
0.83
0.82
0.83
0.81
0.79
0.83
0.85
0.85
0.85
0.81
0.83
0.81
0.82
0.79
0.79
0.83
0.84
0.86
0.85
0.85
0.89
0.9
0.91
0.9
0.88
0.86
0.86
0.86
0.84
0.82
0.81
0.82
0.8
0.8
0.8
0.78
0.79
0.81
0.82
0.85
0.85
0.82
0.84
0.86
0.87
0.86
0.86
0.84
0.81
0.82
0.81
0.81
0.81
0.83
0.81
0.79
0.82
0.83
0.87
0.87
0.85
0.82
0.85
0.86
0.84
0.82
0.82
0.84
0.86
0.84
0.83
0.82
0.84
0.83
0.85
0.85
0.83
0.81
0.82
0.83
0.87
0.85
0.84
0.81
0.84
0.84
0.86
0.86
0.83
0.81
0.83
0.85
0.86
0.85
0.84
0.84
0.87
0.87
0.84
0.85
0.84
0.82
0.82
0.81
0.82
0.79
0.8
0.81
0.8
0.81
0.82
0.8
0.8
0.83
0.85
0.86
0.82
0.82
0.83
0.84
0.83
0.81
0.8
0.85
0.86
0.86
0.91
0.89
0.86
0.85
0.85
0.84
0.82
0.81
0.8
0.8
0.81
0.82
0.82
0.8
0.82
0.83
0.82
0.84
0.82
0.83
0.82
0.86
0.84
0.83
0.82
0.79
0.82
0.82
0.84
0.83
0.8
0.81
0.83
0.83
0.86
0.85
0.82
0.83
0.83
0.84
0.84
0.81
0.83
0.82
0.82
0.83
0.81
0.8
0.8
0.81
0.81
0.81
0.81
0.8
0.81
0.82
0.82
0.83
0.81
0.81
0.82
0.82
0.83
0.82
0.8
0.83
0.83
0.87
0.84
0.83
0.83
0.84
0.83
0.83
0.83
0.8
0.8
0.8
0.82
0.84
0.86
0.82
0.83
0.85
0.85
0.84
0.82
0.79
0.8
0.8
0.79
0.81
0.81
0.84
0.86
0.85
0.83
0.84
0.84
0.84
0.84
0.83
0.81
0.81
0.82
0.81
0.81
0.79
0.81
0.81
0.82
0.82
0.8
0.82
0.82
0.82
0.83
0.81
0.8
0.81
0.84
0.84
0.85
0.83
0.83
0.86
0.85
0.85
0.85
0.82
0.79
0.8
0.78
0.81
0.81
0.82
0.8
0.84
0.82
0.87
0.84
0.83
0.84
0.86
0.86
0.84
0.82
0.81
0.82
0.8
0.83
0.82
0.82
0.81
0.83
0.85
0.84
0.85
0.8
0.79
0.79
0.8
0.8
0.79
0.81
0.84
0.87
0.88
0.87
0.83
0.84
0.83
0.84
0.83
0.81
0.81
0.79
0.8
0.8
0.8
0.8
0.79
0.8
0.81
0.79
0.77
0.79
0.79
0.78
0.79
0.78
0.77
0.77
0.78
0.78
0.77
0.76
0.77
0.77
0.77
0.8
0.79
0.8
0.86
0.88
0.87
0.89
0.87
0.83
0.84
0.86
0.86
0.87
0.81
0.81
0.81
0.81
0.81
0.8
0.78
0.78
0.8
0.8
0.83
0.8
0.79
0.82
0.83
0.83
0.84
0.81
0.79
0.8
0.77
0.77
0.78
0.76
0.75
0.78
0.78
0.79
0.8
0.8
0.82
0.82
0.84
0.82
0.8
0.77
0.79
0.83
0.86
0.91
0.89
0.9
0.92
0.98
0.92
0.85
0.85
0.85
0.83
0.84
0.83
0.81
0.8
0.83
0.83
0.84
0.84
0.8
0.78
0.79
0.8
0.82
0.84
0.81
0.84
0.85
0.84
0.85
0.82
0.8
0.8
0.8
0.82
0.83
0.79
0.77
0.78
0.76
0.76
0.76
0.76
0.76
0.78
0.83
0.99
1.01
0.94
0.95
0.93
0.89
0.87
0.86
0.86
0.84
0.81
0.82
0.81
0.8
0.8
0.79
0.79
0.78
0.79
0.79
0.79
0.78
0.78
0.79
0.79
0.8
0.81
0.81
0.78
0.79
0.81
0.84
0.86
0.85
0.84
0.87
0.87
0.87
0.87
0.83
0.81
0.81
0.81
0.82
0.81
0.81
0.83
0.83
0.85
0.83
0.79
0.77
0.76
0.76
0.78
0.79
0.78
0.78
0.81
0.81
0.84
0.86
0.86
0.83
0.82
0.84
0.84
0.84
0.82
0.8
0.79
0.8
0.79
0.79
0.78
0.8
0.83
0.88
0.92
0.91
0.88
0.85
0.86
0.84
0.81
0.79
0.78
0.79
0.8
0.82
0.83
0.81
0.82
0.84
0.87
0.89
0.86
0.83
0.84
0.88
0.89
0.86
0.83
0.84
0.83
0.82
0.83
0.81
0.83
0.84
0.86
0.85
0.84
0.84
0.85
0.83
0.84
0.83
0.83
0.84
0.85
0.85
0.84
0.83
0.85
0.89
0.81
0.78
0.74
0.73
0.72
0.74
0.75
0.74
0.72
0.77
0.8
0.84
0.85
0.84
0.85
0.89
0.92
0.89
0.81
0.77
0.72
0.7
0.67
0.66
0.64
0.64
0.63
0.63
0.62
0.63
0.62
0.62
0.62
0.62
0.62
0.63
0.63
0.64
0.64
0.66
0.65
0.67
0.66
0.66
0.66
0.67
0.67
0.67
0.66
0.66
0.64
0.64
0.62
0.62
0.63
0.64
0.66
0.65
0.65
0.66
0.65
0.66
0.65
0.65
0.65
0.65
0.65
0.64
0.63
0.63
0.62
0.62
0.62
0.63
0.63
0.63
0.63
0.63
0.64
0.67
0.7
0.73
0.78
0.8
0.81
0.82
0.84
0.83
0.8
0.81
0.8
0.83
0.83
0.83
0.81
0.79
0.78
0.77
0.77
0.77
0.77
0.77
0.79
0.76
0.76
0.78
0.77
0.78
0.76
0.75
0.76
0.76
0.77
0.76
0.76
0.77
0.74
0.76
0.77
0.79
0.8
0.81
0.79
0.79
0.81
0.8
0.8
0.79
0.78
0.75
0.75
0.74
0.74
0.76
0.79
0.8
0.8
0.8
0.84
0.89
0.89
0.89
0.86
0.82
0.82
0.8
0.81
0.81
0.82
0.82
0.8
0.81
0.81
0.81
0.82
0.8
0.8
0.81
0.85
0.84
0.85
0.85
0.83
0.82
0.84
0.84
0.83
0.81
0.82
0.79
0.8
0.81
0.82
0.8
0.8
0.81
0.83
0.81
0.78
0.76
0.76
0.75
0.73
0.71
0.7
0.69
0.68
0.67
0.66
0.65
0.65
0.64
0.64
0.64
0.63
0.64
0.64
0.64
0.63
0.64
0.64
0.65
0.66
0.68
0.7
0.71
0.73
0.74
0.74
0.75
0.76
0.78
0.81
0.83
0.81
0.78
0.77
0.77
0.81
0.86
0.87
0.84
0.81
0.8
0.81
0.82
0.82
0.81
0.78
0.77
0.78
0.79
0.83
0.84
0.82
0.81
0.79
0.82
0.84
0.84
0.81
0.8
0.8
0.8
0.81
0.81
0.82
0.82
0.81
0.79
0.83
0.86
0.86
0.84
0.82
0.83
0.83
0.81
0.81
0.81
0.82
0.81
0.8
0.81
0.78
0.78
0.8
0.84
0.85
0.83
0.84
0.82
0.85
0.85
0.86
0.85
0.84
0.81
0.79
0.79
0.78
0.8
0.81
0.81
0.78
0.8
0.81
0.81
0.83
0.86
0.82
0.8
0.81
0.8
0.82
0.83
0.82
0.86
0.87
0.85
0.81
0.81
0.82
0.81
0.81
0.8
0.8
0.84
0.84
0.85
0.86
0.88
0.84
0.84
0.83
0.81
0.81
0.8
0.81
0.83
0.87
0.91
0.85
0.87
0.89
0.87
0.82
0.82
0.8
0.8
0.8
0.8
0.8
0.84
0.9
0.93
0.86
0.85
0.84
0.82
0.79
0.77
0.78
0.75
0.74
0.71
0.7
0.71
0.74
0.78
0.76
0.76
0.77
0.79
0.78
0.76
0.76
0.76
0.75
0.75
0.74
0.73
0.72
0.73
0.72
0.73
0.74
0.73
0.74
0.74
0.75
0.75
0.77
0.78
0.77
0.76
0.78
0.79
0.78
0.78
0.78
0.8
0.83
0.9
0.95
0.86
0.84
0.84
0.82
0.84
0.81
0.8
0.8
0.81
0.83
0.85
0.83
0.83
0.81
0.82
0.83
0.83
0.83
0.85
0.86
0.89
0.87
0.83
0.84
0.84
0.84
0.84
0.82
0.79
0.79
0.8
0.79
0.81
0.84
0.84
0.82
0.88
0.89
0.91
0.88
0.86
0.87
0.89
0.92
0.87
0.87
0.88
0.85
0.86
0.85
0.86
0.86
0.82
0.81
0.81
0.81
0.81
0.8
0.77
0.78
0.76
0.77
0.74
0.74
0.74
0.75
0.76
0.79
0.79
0.78
0.78
0.76
0.76
0.77
0.77
0.75
0.76
0.79
0.81
0.77
0.77
0.76
0.75
0.75
0.78
0.81
0.81
0.8
0.81
0.81
0.81
0.82
0.8
0.79
0.79
0.81
0.83
0.86
0.87
0.89
0.93
0.91
0.92
0.91
0.89
0.9
0.88
0.88
0.86
0.85
0.83
0.84
0.87
0.85
0.86
0.87
0.89
0.87
0.85
0.87
0.88
0.84
0.82
0.8
0.79
0.8
0.79
0.78
0.78
0.79
0.83
0.83
0.86
0.86
0.85
0.86
0.86
0.83
0.86
0.85
0.84
0.82
0.81
0.81
0.79
0.78
0.8
0.8
0.79
0.78
0.78
0.78
0.77
0.76
0.74
0.74
0.73
0.77
0.82
0.85
0.85
0.83
0.83
0.85
0.85
0.84
0.83
0.82
0.79
0.78
0.75
0.74
0.71
0.73
0.85
0.86
0.85
0.89
1.04
1.05
0.99
0.95
0.96
0.95
0.89
0.86
0.85
0.82
0.84
0.82
0.81
0.82
0.82
0.83
0.81
0.81
0.81
0.82
0.85
0.86
0.83
0.85
0.87
0.91
0.87
0.84
0.84
0.81
0.8
0.79
0.77
0.77
0.75
0.75
0.77
0.76
0.76
0.78
0.79
0.83
0.85
0.85
0.83
0.82
0.8
0.8
0.79
0.79
0.79
0.81
0.83
0.8
0.8
0.8
0.8
0.78
0.78
0.77
0.76
0.75
0.77
0.78
0.78
0.79
0.82
0.84
0.84
0.82
0.81
0.83
0.82
0.84
0.85
0.83
0.83
0.86
0.86
0.83
0.81
0.83
0.86
0.84
0.86
0.84
0.85
0.89
0.93
0.93
0.91
0.87
0.85
0.87
0.89
0.9
0.85
0.87
0.88
0.84
0.81
0.82
0.79
0.77
0.75
0.73
0.71
0.74
0.77
0.79
0.87
0.88
0.87
0.84
0.84
0.84
0.87
0.86
0.85
0.84
0.84
0.82
0.83
0.79
0.8
0.8
0.79
0.79
0.77
0.78
0.76
0.78
0.8
0.78
0.79
0.8
0.81
0.85
0.84
0.82
0.82
0.8
0.8
0.78
0.77
0.8
0.81
0.87
0.91
0.95
0.95
0.91
0.89
0.87
0.85
0.81
0.8
0.8
0.79
0.79
0.78
0.78
0.8
0.8
0.84
0.84
0.81
0.81
0.79
0.78
0.74
0.71
0.69
0.68
0.68
0.7
0.75
0.84
0.87
0.84
0.87
0.9
0.91
0.91
0.88
0.87
0.83
0.8
0.76
0.74
0.75
0.78
0.84
0.86
0.84
0.9
0.92
0.94
0.89
0.88
0.89
0.91
0.87
0.83
0.84
0.8
0.82
0.81
0.78
0.79
0.8
0.8
0.83
0.84
0.88
0.84
0.84
0.86
0.85
0.82
0.81
0.81
0.82
0.84
0.83
0.84
0.85
0.89
0.9
0.91
0.91
0.89
0.88
0.87
0.86
0.84
0.83
0.82
0.8
0.82
0.81
0.81
0.79
0.79
0.78
0.78
0.8
0.78
0.78
0.78
0.8
0.81
0.81
0.81
0.79
0.79
0.79
0.81
0.83
0.82
0.8
0.8
0.79
0.77
0.76
0.76
0.73
0.71
0.71
0.69
0.67
0.69
0.71
0.74
0.78
0.88
0.91
0.93
0.89
0.87
0.84
0.8
0.77
0.75
0.73
0.73
0.73
0.77
0.78
0.8
0.81
0.8
0.83
0.86
0.88
0.86
0.85
0.86
0.87
0.87
0.86
0.83
0.83
0.84
0.84
0.86
0.87
0.83
0.83
0.85
0.85
0.88
0.86
0.86
0.87
0.85
0.84
0.85
0.85
0.85
0.87
0.91
0.89
0.89
0.84
0.84
0.82
0.81
0.81
0.82
0.83
0.84
0.84
0.86
0.92
0.98
0.94
0.9
0.89
0.88
0.89
0.88
0.88
0.84
0.85
0.86
0.88
0.86
0.84
0.86
0.86
0.84
0.82
0.81
0.81
0.8
0.8
0.82
0.81
0.83
0.86
0.88
0.9
0.88
0.89
0.9
0.88
0.88
0.86
0.86
0.87
0.86
0.84
0.83
0.84
0.83
0.83
0.81
0.82
0.81
0.8
0.79
0.79
0.77
0.76
0.74
0.71
0.69
0.68
0.66
0.66
0.66
0.65
0.66
0.69
0.82
0.85
0.88
1.05
1.1
1.01
0.94
0.91
0.88
0.82
0.79
0.76
0.76
0.74
0.75
0.79
0.83
0.89
0.91
0.97
1.01
0.98
0.92
0.9
0.87
0.85
0.83
0.81
0.8
0.8
0.78
0.76
0.74
0.75
0.85
0.98
0.99
0.91
0.9
0.9
0.87
0.87
0.84
0.82
0.83
0.81
0.8
0.82
0.79
0.79
0.78
0.77
0.76
0.78
0.83
0.81
0.8
0.8
0.8
0.78
0.76
0.75
0.74
0.73
0.72
0.69
0.69
0.68
0.66
0.65
0.64
0.62
0.62
0.61
0.6
0.6
0.6
0.59
0.6
0.61
0.62
0.65
0.66
0.68
0.71
0.71
0.75
0.78
0.77
0.76
0.76
0.77
0.85
0.93
0.86
0.81
0.84
0.85
0.89
0.96
0.88
0.82
0.82
0.82
0.87
0.9
0.87
0.83
0.82
0.83
0.88
0.88
0.91
0.9
0.86
0.85
0.88
0.89
0.89
0.88
0.85
0.86
0.87
0.87
0.88
0.83
0.84
0.86
0.88
0.88
0.86
0.85
0.85
0.86
0.89
0.88
0.86
0.9
0.89
0.87
0.82
0.81
0.81
0.83
0.86
0.84
0.89
0.91
0.94
0.9
0.87
0.88
0.88
0.89
0.87
0.89
0.93
0.9
0.88
0.88
0.85
0.8
0.78
0.78
0.77
0.79
0.79
0.79
0.79
0.79
0.79
0.78
0.76
0.76
0.74
0.74
0.72
0.76
0.77
0.81
0.77
0.77
0.79
0.8
0.82
0.83
0.83
0.82
0.79
0.81
0.83
0.84
0.86
0.87
0.87
0.85
0.88
0.87
0.86
0.85
0.82
0.83
0.85
0.87
0.9
0.91
0.88
0.86
0.85
0.88
0.88
0.87
0.85
0.85
0.9
0.97
0.93
0.92
0.91
0.92
0.88
0.88
0.91
0.9
0.85
0.84
0.86
0.91
0.94
0.92
0.86
0.89
