-0.0408276
-0.0764642
-0.0980076
-0.0782386
-0.080365
-0.0786559
-0.0696355
-0.0506294
-0.0305172
-0.0276537
-0.0265949
-0.019275
-0.0177513
0.00302227
0.00745355
0.0162678
0.0185633
0.0146312
0.00640166
0.00993883
0.00588862
-0.0031126
-0.0314134
-0.0523317
-0.0672265
-0.0728034
-0.0803271
-0.0688018
-0.0610539
-0.059051
-0.0750151
-0.0752942
-0.0805085
-0.0655322
-0.0833691
-0.0927993
-0.0851488
-0.0735504
-0.0966799
-0.0911638
-0.0872351
-0.083935
-0.0839076
-0.0914669
-0.0743843
-0.0913037
-0.103762
-0.0856836
-0.090782
-0.0898413
-0.0970351
-0.0738098
-0.0819265
-0.157567
-0.223581
-0.263509
-0.291992
-0.300435
-0.232628
-0.125413
0.0343159
0.185343
0.181188
0.276605
0.249637
0.229707
0.184523
0.172306
0.176629
0.161901
0.17843
0.182988
0.172546
0.14631
0.105359
0.0886067
0.0609294
0.061028
0.0717366
0.0671269
0.0642182
0.0540843
0.069473
0.0709076
0.0604287
0.0754443
0.0674616
0.0807769
0.0847298
0.082295
0.0904013
0.0910771
0.101812
0.116123
0.0828015
0.0971889
0.118932
0.104517
0.12003
0.128962
0.132924
0.124067
0.116702
0.125288
0.138924
0.155863
0.147518
0.159191
0.14672
0.164659
0.152126
0.158412
0.167989
0.173246
0.170125
0.168745
0.164786
0.17807
0.177793
0.178308
0.177818
0.189736
0.169377
0.167188
0.162134
0.143488
0.145443
0.145903
0.141298
0.121529
0.135783
0.107981
0.0616452
0.0489762
0.0344191
0.0169012
0.00757598
-0.0154255
-0.0269644
-0.0413432
-0.0391872
-0.0506536
-0.0401697
-0.0485562
-0.0739167
-0.0735517
-0.0666025
-0.0614315
-0.0587876
-0.0704404
-0.0702683
-0.047187
-0.0531283
-0.0707199
-0.0700381
-0.0523281
-0.0622446
-0.0591721
-0.0524526
-0.0578227
-0.0487393
-0.0717442
-0.057517
-0.0539384
-0.0648285
-0.0425803
-0.0596553
-0.0820634
-0.0572056
-0.0591801
-0.0588616
-0.0468654
-0.0577244
-0.052274
-0.0510196
-0.0557223
-0.0643057
-0.0532873
-0.0420539
-0.0654628
-0.0593384
-0.0410037
-0.0565817
-0.0474359
-0.049641
-0.0668597
-0.0609222
-0.0704878
-0.0633419
-0.0605603
-0.0653884
-0.043133
-0.0539303
-0.048688
-0.0422921
-0.0740616
-0.0626591
-0.0707787
-0.0623042
-0.0668078
-0.0450272
-0.0666249
-0.0880116
-0.0591312
-0.05608
-0.0672844
-0.0660841
-0.0666352
-0.070047
-0.0770828
-0.0690103
-0.0691121
-0.0654836
-0.0699157
-0.0648767
-0.0583442
-0.0667927
-0.0655247
-0.0696041
-0.0653662
-0.0633549
-0.0772733
-0.0737795
-0.0749718
-0.0794451
-0.0761246
-0.0687055
-0.0592443
-0.066874
-0.0690548
-0.068766
-0.0712195
-0.0729139
-0.0821732
-0.0640505
-0.0752793
-0.0519754
-0.0899262
-0.105836
-0.0702951
-0.0435691
-0.0239883
-0.0273855
-0.0159233
-0.0197477
0.0143536
-0.0033783
-0.00430058
0.00576381
0.0217902
0.0384741
0.0156346
0.020128
0.0122684
-0.010486
-0.033155
-0.0460694
-0.0591423
-0.0612856
-0.0644475
-0.0595351
-0.0516216
-0.063294
-0.0549744
-0.0639748
-0.0555009
-0.0670261
-0.079464
-0.0838361
-0.0779209
-0.0739009
-0.0713282
-0.0728393
-0.0759671
-0.0992087
-0.0546234
-0.0675027
-0.103496
-0.0784695
-0.0817869
-0.0844739
-0.0895375
-0.0896531
-0.0824124
-0.0975023
-0.118383
-0.21254
-0.249451
-0.291826
-0.314152
-0.273011
-0.194317
-0.041961
0.136047
0.194936
0.281293
0.265846
0.237703
0.205368
0.199294
0.188309
0.174452
0.198325
0.219513
0.201478
0.156871
0.121446
0.083962
0.065632
0.0816857
0.088257
0.0790322
0.0694139
0.0922323
0.104674
0.0616488
0.0784738
0.0827954
0.082309
0.0913469
0.0999937
0.102908
0.1022
0.0996481
0.105468
0.123409
0.116631
0.124711
0.134074
0.133851
0.134889
0.142786
0.150458
0.151557
0.147327
0.153351
0.148516
0.166609
0.168047
0.167719
0.185737
0.19295
0.197299
0.191484
0.184826
0.20199
0.192271
0.199717
0.186838
0.185463
0.195998
0.18656
0.176022
0.19314
0.184508
0.177643
0.170836
0.178357
0.166495
0.149854
0.125721
0.132118
0.117972
0.100023
0.0843324
0.057035
0.0394248
0.0110193
0.0138162
-0.0070878
-0.0155128
-0.0142924
-0.0464278
-0.0420527
-0.0584923
-0.0640645
-0.0620115
-0.0751867
-0.0734524
-0.0779579
-0.074822
-0.0668101
-0.080114
-0.0632156
-0.0745081
-0.0799655
-0.0698002
-0.0720917
-0.0581173
-0.0711101
-0.0687086
-0.0791549
-0.0680379
-0.0579444
-0.0776841
-0.0671946
-0.0620435
-0.0559114
-0.0605229
-0.061187
-0.0565502
-0.0535791
-0.0506856
-0.0547127
-0.056515
-0.0608571
-0.0639478
-0.0503894
-0.0653223
-0.0545133
-0.0562063
-0.0543567
-0.0440812
-0.0502083
-0.0480294
-0.0526342
-0.0649916
-0.0478433
-0.0572118
-0.053858
-0.0631633
-0.0590699
-0.0568007
-0.0592247
-0.0558183
-0.0437565
-0.0627319
-0.0691172
-0.0612312
-0.0617019
-0.0632794
-0.0791171
-0.0729947
-0.0781932
-0.0803173
-0.0756751
-0.0613383
-0.0625386
-0.0531048
-0.0655793
-0.064889
-0.066467
-0.0748736
-0.0759457
-0.0802937
-0.0647736
-0.0605839
-0.0592185
-0.0578216
-0.082355
-0.0601857
-0.0656981
-0.057682
-0.0697626
-0.0756577
-0.0740117
-0.041844
-0.0764273
-0.0508643
-0.0520904
-0.0850727
-0.0780575
-0.085679
-0.0751721
-0.0744235
-0.08619
-0.0804107
-0.0726431
-0.0788387
-0.0796183
-0.0691516
-0.0707581
-0.06343
-0.0690878
-0.0636983
-0.0797519
-0.0629724
-0.0631528
-0.0480727
-0.0226356
-0.0298285
-0.0219882
-0.0179742
-0.0150047
-0.000412034
0.00686382
0.033402
0.0300583
0.0228523
0.010774
0.00842434
0.0284647
-0.0209653
-0.0346822
-0.0492379
-0.0790393
-0.0796015
-0.0860453
-0.0597365
-0.0514914
-0.0595042
-0.0718162
-0.0872602
-0.0864134
-0.0970036
-0.0807785
-0.0998925
-0.0965455
-0.086973
-0.0880552
-0.0918573
-0.0906173
-0.0947646
-0.0924937
-0.0938235
-0.0617572
-0.0827786
-0.110792
-0.0951676
-0.0925343
-0.0764024
-0.0991358
-0.098525
-0.171119
-0.252481
-0.267987
-0.292422
-0.251399
-0.144097
-0.034878
0.190195
0.224131
0.302246
0.364515
0.270152
0.213353
0.165991
0.15214
0.172356
0.163538
0.198861
0.190704
0.154083
0.112146
0.0760899
0.0679495
0.0617906
0.0634919
0.0859599
0.0775258
0.0651741
0.0739884
0.0605101
0.072121
0.0639487
0.0764089
0.0882596
0.0712565
0.0926812
0.0912394
0.101501
0.0955733
0.0788525
0.116808
0.0934264
0.109281
0.110779
0.116407
0.149728
0.1215
0.099477
0.114699
0.110083
0.12175
0.122538
0.129898
0.133159
0.137874
0.133952
0.1356
0.135509
0.151075
0.16482
0.151502
0.168738
0.179149
0.170266
0.170914
0.157558
0.163115
0.165801
0.161557
0.169085
0.159276
0.146861
0.157344
0.136733
0.13431
0.118843
0.144166
0.0967674
0.0785558
0.0743957
0.0534005
0.0413234
0.0240899
-0.000196642
0.0102309
-0.0149588
-0.0355518
-0.0356879
-0.0436343
-0.0592797
-0.0792038
-0.0713163
-0.0574462
-0.0608231
-0.0703511
-0.0584059
-0.0397749
-0.0470321
-0.0599176
-0.0652168
-0.0505095
-0.0606541
-0.06333
-0.0470591
-0.0540344
-0.0595364
-0.040886
-0.0302406
-0.0362261
-0.0419618
-0.0096201
-0.0483278
-0.0485706
-0.0434919
-0.0461578
-0.0487404
-0.0518667
-0.043237
-0.0358521
-0.0357809
-0.0410898
-0.05545
-0.0480092
-0.0572293
-0.0489732
-0.0577878
-0.059001
-0.0557241
-0.054606
-0.0679138
-0.0710038
-0.0614595
-0.0461383
-0.0458533
-0.0497653
-0.0509844
-0.0578504
-0.0700748
-0.0748466
-0.0545583
-0.0417954
-0.0561751
-0.0404945
-0.0615773
-0.0623832
-0.0575914
-0.0564338
-0.0691514
-0.066845
-0.072347
-0.0686253
-0.0657231
-0.0749149
-0.0644581
-0.06543
-0.0640854
-0.0651979
-0.0827049
-0.0802193
-0.0685726
-0.0761012
-0.0779914
-0.0814841
-0.0849696
-0.0737195
-0.0688218
-0.0712556
-0.0401809
-0.101525
-0.093869
-0.0924414
-0.0840744
-0.0826305
-0.0766794
-0.0669791
-0.0691241
-0.0787348
-0.0759585
-0.0691899
-0.0407183
-0.0148558
-0.0194865
-0.0163406
-0.0130129
0.00504938
0.0284018
0.0145819
0.0151718
0.0349579
0.0384649
-0.00541359
0.0272272
0.0165113
-0.0140419
-0.0323081
-0.0484237
-0.0576953
-0.0853365
-0.0809579
-0.0411044
-0.0384733
-0.0593716
-0.0657763
-0.078876
-0.0776202
-0.0853387
-0.0818558
-0.0748797
-0.0707411
-0.0718117
-0.0800957
-0.104307
-0.086762
-0.0514552
-0.0934075
-0.0876343
-0.0759213
-0.0816374
-0.0770286
-0.0692837
-0.0727886
-0.0756504
-0.0787211
-0.0966749
-0.15133
-0.210347
-0.214496
-0.242091
-0.24034
-0.188388
-0.0471257
0.126611
0.220966
0.237388
0.329137
0.256953
0.210918
0.165607
0.146897
0.155957
0.155253
0.180058
0.199192
0.184716
0.135817
0.090799
0.0923302
0.0540331
0.0329604
0.0597615
0.0707326
0.0717646
0.0677652
0.0641781
0.0817894
0.085422
0.0856071
0.0813492
0.0732161
0.0838221
0.0789481
0.0880039
0.0977976
0.103926
0.0987333
0.0763371
0.106073
0.105177
0.121247
0.108423
0.125623
0.139967
0.0844812
0.107932
0.134776
0.137079
0.122967
0.112591
0.115683
0.122687
0.160812
0.161286
0.145661
0.149342
0.147818
0.163765
0.164218
0.151936
0.174858
0.174953
0.179814
0.178837
0.172562
0.16624
0.15193
0.15386
0.139298
0.144772
0.14048
0.137523
0.0837332
0.0816387
0.0747396
0.0517029
0.034651
0.0312885
0.00392081
0.000631103
-0.0211444
-0.0258945
-0.019529
-0.0507151
-0.0644174
-0.0670683
-0.0652345
-0.0728162
-0.0822296
-0.0752491
-0.0789683
-0.0744976
-0.0648046
-0.0506176
-0.0706175
-0.0617344
-0.0588554
-0.0766793
-0.0628518
-0.0673242
-0.0461821
-0.0473495
-0.0817148
-0.0621168
-0.0682154
-0.0440327
-0.0649534
-0.0811397
-0.0545488
-0.0671567
-0.043105
-0.0466902
-0.051115
-0.0532446
-0.061107
-0.0482705
-0.074479
-0.062719
-0.0633201
-0.0790109
-0.0753856
-0.0653151
-0.0620796
-0.0608794
-0.0568529
-0.0383091
-0.0691006
-0.080348
-0.0821478
-0.061546
-0.0747098
-0.0687119
-0.0767297
-0.0713606
-0.054129
-0.0714574
-0.0590015
-0.0532216
-0.0566595
-0.0516964
-0.0664655
-0.0578092
-0.0648064
-0.0672063
-0.0733597
-0.099623
-0.0849576
-0.0674729
-0.0651384
-0.0592258
-0.0628937
-0.0963429
-0.0932485
-0.0806122
-0.0662936
-0.0800372
-0.0857933
-0.0692322
-0.0828708
-0.0927491
-0.0890105
-0.0780084
-0.076189
-0.0680697
-0.0879197
-0.074862
-0.0787573
-0.0689683
-0.0833044
-0.0899815
-0.0686004
-0.0938568
-0.080448
-0.0766855
-0.0581002
-0.0262166
-0.00215548
-0.011536
-0.0183406
-0.0125383
0.000224586
0.0156271
-0.000920532
0.00272796
0.00644559
0.000518846
-0.000470286
0.00260059
-0.00835826
-0.0482774
-0.0495691
-0.0744428
-0.0876933
-0.08143
-0.0758346
-0.0882179
-0.0733213
-0.0667265
-0.0804331
-0.0973282
-0.0976072
-0.0870438
-0.0901826
-0.0902033
-0.0789223
-0.0669623
-0.107679
-0.109006
-0.0866231
-0.0595038
-0.0833163
-0.0863822
-0.104213
-0.096543
-0.0800614
-0.0718259
-0.0781565
-0.0876195
-0.0978959
-0.127768
-0.213732
-0.258071
-0.301977
-0.312278
-0.276453
-0.192185
-0.0502774
0.137722
0.168211
0.243438
0.271282
0.209111
0.16788
0.177216
0.170568
0.169993
0.186771
0.215962
0.185544
0.155808
0.101611
0.0835974
0.0783567
0.057692
0.0783847
0.0900263
0.0702516
0.0867344
0.068608
0.102523
0.0804154
0.0636492
0.0819857
0.0724323
0.101443
0.0907475
0.10456
0.114987
0.104246
0.106259
0.130038
0.127929
0.123689
0.123065
0.134079
0.129365
0.137636
0.140916
0.154957
0.190145
0.137775
0.133432
0.14344
0.169048
0.155796
0.166388
0.187141
0.184069
0.182242
0.167035
0.186359
0.196921
0.190736
0.212399
0.186922
0.184817
0.189692
0.191259
0.193533
0.192657
0.195905
0.129363
0.192388
0.189557
0.145468
0.123807
0.126831
0.109981
0.0924324
0.0603618
0.0486789
0.036291
0.0119029
0.0058447
-0.0206529
-0.0201865
-0.0481434
-0.0590421
-0.0564073
-0.0515137
-0.0565556
-0.0603795
-0.0640144
-0.0555298
-0.0612392
-0.0712632
-0.0712555
-0.0650189
-0.0646682
-0.0509198
-0.0572121
-0.0586209
-0.0560946
-0.0350209
-0.0346272
-0.0752602
-0.0613372
-0.031239
-0.0406625
-0.0724665
-0.0444349
-0.0572334
-0.0623255
-0.0477973
-0.0436466
-0.0655647
-0.0650804
-0.0764363
-0.0666067
-0.0621951
-0.0535501
-0.0457196
-0.0505109
-0.0612883
-0.0573746
-0.0473617
-0.0528524
-0.0363514
-0.0539509
-0.068433
-0.0160893
-0.0593166
-0.0817896
-0.0266644
-0.0615126
-0.0567231
-0.0840572
-0.082788
-0.0633607
-0.0516578
-0.0504012
-0.0610274
-0.0421829
-0.0690929
-0.0691093
-0.0191946
-0.0529674
-0.0637071
-0.0779713
-0.0631681
-0.0671705
-0.067718
-0.0731907
-0.0369053
-0.0799478
-0.0856359
-0.0783964
-0.0953475
-0.0846031
-0.0425263
-0.0417916
-0.109042
-0.0851896
-0.0800867
-0.0788213
-0.0856054
-0.066695
-0.0685717
-0.0772247
-0.0710911
-0.0693944
-0.0422389
-0.0761689
-0.0569244
-0.0494724
-0.082322
-0.0887665
-0.061899
-0.0729237
-0.110869
-0.0956704
-0.0604886
-0.0625369
-0.0939999
-0.0744409
-0.0716448
-0.0523869
-0.0499965
-0.00503349
-0.00103348
-0.00434265
-0.0158269
-0.033414
-0.0117221
-0.00233005
0.0612469
0.0180368
-0.0199399
-0.0151752
0.00668742
-0.0107592
-0.0207663
-0.0315672
-0.0712563
-0.072955
-0.0686154
-0.0743871
-0.0480941
-0.0587238
-0.0512731
-0.0435533
-0.0630731
-0.0925644
-0.0863557
-0.06497
-0.0444626
-0.0569966
-0.0522258
-0.0521753
-0.0559093
-0.126381
-0.0903437
-0.0720076
-0.0428018
-0.0748988
-0.107591
-0.0815138
-0.087009
-0.0910516
-0.0836743
-0.0859068
-0.110585
-0.1916
-0.256197
-0.260023
-0.302861
-0.352421
-0.258989
-0.118234
0.0873687
0.169505
0.242296
0.290114
0.267677
0.237802
0.208732
0.16022
0.164156
0.19052
0.208022
0.222571
0.228
0.137676
0.0970281
0.0742003
0.0605589
0.0671252
0.10774
0.10298
0.0780999
0.086435
0.110401
0.0624046
0.0555401
0.0838889
0.0844719
0.128963
0.118384
0.0973476
0.112541
0.108839
0.126924
0.134703
0.12138
0.119051
0.121563
0.155281
0.1413
0.141557
0.157409
0.147764
0.182128
0.146066
0.157708
0.172643
0.159638
0.154563
0.176889
0.188701
0.171762
0.20625
0.201634
0.180766
0.193392
0.198638
0.188771
0.218607
0.239689
0.227582
0.1981
0.179127
0.197599
0.155869
0.15327
0.167025
0.134395
0.125739
0.111162
0.120233
0.112416
0.0997146
0.0881286
0.107614
0.0053678
-0.0379945
0.0140268
-0.0448332
-0.028412
-0.0415127
-0.0625772
-0.043742
-0.0560922
-0.0448965
-0.0243228
-0.0993145
-0.0617263
-0.0766422
-0.0516114
-0.123989
-0.12544
-0.0830575
-0.0742602
-0.0493558
-0.100666
-0.0872225
-0.0738158
-0.09586
-0.0689797
-0.0691941
-0.0526072
-0.088161
-0.0936765
-0.107499
-0.0843655
-0.02846
-0.0241186
-0.0467663
-0.0780133
-0.108353
-0.0838708
-0.0765556
-0.036813
-0.0552495
-0.0722374
-0.0762949
-0.0578512
-0.0527191
-0.0557947
-0.0327382
-0.0267882
-0.0462921
-0.0587492
-0.0986337
-0.0825841
-0.0611522
-0.0649249
-0.0590238
-0.0327825
-0.0467441
-0.0424905
-0.0949877
-0.0836097
-0.0859507
-0.070863
-0.0817631
-0.0767292
-0.0727337
-0.0581604
-0.0988537
-0.0879468
-0.0921846
-0.0653695
-0.0623088
-0.0576302
-0.0600581
-0.0975258
-0.0957503
-0.0783993
-0.0668598
-0.0588026
-0.0838705
-0.0812295
-0.0425824
-0.0693919
-0.0800105
-0.0652279
-0.0568771
-0.0988722
-0.0942419
-0.0846472
-0.0904732
-0.091718
-0.0814685
-0.0714014
-0.0695006
-0.0926363
-0.092019
-0.0754337
-0.0696408
-0.0633664
-0.0647424
-0.0779601
-0.0709301
-0.052961
-0.0800778
-0.0736598
-0.0576038
-0.0410718
-0.0363572
-0.0275754
-0.0353772
-0.0130107
0.0100402
0.0231707
0.0183001
0.000202239
0.0226985
0.0522568
0.0116459
-0.0353444
-0.0468766
-0.0604839
-0.0444506
-0.0689544
-0.103434
-0.0404806
-0.0706026
-0.0823728
-0.0708646
-0.0968256
-0.087264
-0.0695822
-0.0587058
-0.0541564
-0.0984465
-0.0742346
-0.0704635
-0.0614452
-0.0858517
-0.139297
-0.11329
-0.10016
-0.0976523
-0.101079
-0.0903753
-0.0782942
-0.0816691
-0.0955728
-0.109006
-0.0864924
-0.154945
-0.23899
-0.274473
-0.280729
-0.289393
-0.242945
-0.109015
0.121637
0.222537
0.274352
0.388164
0.337236
0.266997
0.196897
0.176139
0.161308
0.186343
0.209245
0.213633
0.176426
0.136102
0.0782026
0.0516664
0.0471419
0.0865301
0.0907882
0.0368
0.0478405
0.0569454
0.0623698
0.0806557
0.0704784
0.045923
0.068872
0.0616169
0.0716598
0.100545
0.10215
0.114803
0.0939444
0.097622
0.0871637
0.111807
0.0938047
0.112205
0.117449
0.105395
0.128953
0.141805
0.128284
0.142114
0.12833
0.128723
0.123816
0.144041
0.137559
0.148106
0.164239
0.162779
0.150283
0.164632
0.151807
0.142752
0.167787
0.167878
0.165217
0.143431
0.164316
0.192915
0.134799
0.117124
0.15192
0.150219
0.11738
0.0968073
0.110067
0.113402
0.0896855
0.0811334
0.0757858
0.0530366
0.0268387
-0.00130495
-0.0016759
-0.0201285
0.0219467
-0.016898
-0.0777465
-0.046045
-0.0519911
-0.0622049
-0.0427666
-0.0625436
-0.0508273
-0.0828816
-0.106777
-0.0608883
-0.0453284
-0.0886715
-0.122944
-0.100157
-0.0593464
-0.00482973
-0.0683686
-0.0552578
-0.0385736
-0.0673268
-0.0960818
-0.0737069
-0.0544262
-0.0538667
-0.0771947
-0.0634973
-0.0545754
-0.0571405
-0.0520853
-0.0531583
-0.0410224
-0.0577826
-0.0433733
-0.0673504
-0.0433187
-0.0576545
-0.0682217
-0.0590107
-0.0366696
-0.0528046
-0.0365128
-0.0618666
-0.0338982
-0.02197
-0.0867664
-0.0757803
-0.0596307
-0.0607293
-0.0591462
-0.0764604
-0.0566758
-0.0684255
-0.0413598
-0.0491987
-0.068946
-0.0802779
-0.071283
-0.0706487
-0.0589548
-0.0582676
-0.0467603
-0.030261
-0.0785475
-0.088423
-0.0724849
-0.0670851
-0.0732204
-0.065956
-0.0445862
-0.0566881
-0.0344915
-0.0533297
-0.0987192
-0.0581821
-0.0758313
-0.079087
-0.0656559
-0.0997915
-0.070111
-0.0739547
-0.0860765
-0.054282
-0.0789977
-0.0851896
-0.0711082
-0.0476322
-0.0262365
-0.0552165
-0.029344
-0.0363295
-0.0498778
-0.0256588
-0.0163686
-0.00824797
0.015521
0.0239197
0.0371547
0.0295433
0.00326328
0.00955761
0.00475787
-0.0148658
-0.0314915
-0.035687
-0.0310892
-0.0644516
-0.0609972
-0.0425675
-0.0278384
-0.0641993
-0.0708892
-0.0685418
-0.0636774
-0.0849481
-0.0696033
-0.0725408
-0.0806232
-0.078029
-0.0720606
-0.0790755
-0.073258
-0.0954201
-0.0848289
-0.0720817
-0.0473551
-0.0699612
-0.0791504
-0.0763375
-0.0809874
-0.0731827
-0.0634839
-0.0798783
-0.138751
-0.221962
-0.222545
-0.23855
-0.238349
-0.197087
-0.0600691
0.147698
0.259852
0.264906
0.34392
0.324499
0.226961
0.186199
0.160317
0.15081
0.185003
0.216935
0.179041
0.189494
0.16211
0.0811948
0.0749285
0.101969
0.0808892
0.101834
0.0946878
0.0896452
0.0689914
0.0694845
0.0549013
0.078606
0.0903441
0.0512377
0.0881927
0.0991013
0.0767975
0.0810274
0.0878445
0.0912084
0.13447
0.124063
0.0825534
0.086893
0.105644
0.136035
0.12137
0.139882
0.136445
0.151577
0.163654
0.109473
0.114017
0.124777
0.108261
0.138306
0.137145
0.144835
0.153957
0.168749
0.147929
0.146284
0.131292
0.167132
0.168312
0.131575
0.14662
0.165169
0.165403
0.131135
0.127231
0.143053
0.128447
0.112783
0.126275
0.103039
0.0905667
0.0828535
0.0821562
0.0469952
0.0282078
0.0140193
0.0121951
0.00355273
-0.0225591
-0.031179
-0.0436479
-0.0677106
-0.0641419
-0.047233
-0.0478342
-0.0754135
-0.0721856
-0.0891629
-0.0848809
-0.0594707
-0.0691703
-0.0743435
-0.0717122
-0.0775795
-0.0659529
-0.05378
-0.0612282
-0.0519012
-0.097353
-0.0912266
-0.0691758
-0.0698124
-0.0787727
-0.0712465
-0.0652319
-0.0672961
-0.0632305
-0.0545081
-0.0511701
-0.0867287
-0.0881119
-0.0736385
-0.0661731
-0.0460434
-0.0706095
-0.0475835
-0.0521427
-0.0689894
-0.0589644
-0.044657
-0.0703918
-0.0757468
-0.0472619
-0.050063
-0.0666937
-0.0814142
-0.0815242
-0.0760846
-0.0683758
-0.0826624
-0.0414661
-0.0703833
-0.0886924
-0.0872253
-0.064505
-0.0571399
-0.0531147
-0.0963221
-0.0769236
-0.0902404
-0.0862326
-0.0545409
-0.0609504
-0.0505936
-0.067033
-0.0937972
-0.060565
-0.0734745
-0.107253
-0.0549184
-0.0627151
-0.0720524
-0.0760591
-0.0742187
-0.0829026
-0.0927233
-0.0488428
-0.0506872
-0.0825807
-0.0742119
-0.0819066
-0.0837102
-0.0501943
-0.0674453
-0.0739465
-0.0802332
-0.105635
-0.131623
-0.0828579
-0.0700402
-0.0254931
-0.0275096
-0.00916965
-0.0291516
-0.0336909
-0.00657934
0.00707303
0.0105123
0.0125704
0.0177315
0.0163461
0.0182306
-0.0114523
-0.0167017
-0.0308383
-0.0267035
-0.0959284
-0.0990055
-0.08803
-0.0714617
-0.0427093
-0.0733607
-0.099156
-0.0995542
-0.109341
-0.0976599
-0.0687276
-0.0765461
-0.0773039
-0.0769016
-0.0969131
-0.103944
-0.0808175
-0.0990503
-0.111218
-0.119712
-0.068082
-0.0517508
-0.110676
-0.0895535
-0.102305
-0.085002
-0.0760681
-0.0970896
-0.149989
-0.243916
-0.272929
-0.324647
-0.322845
-0.260243
-0.154581
0.0310233
0.125349
0.202678
0.286195
0.262431
0.254977
0.163353
0.160079
0.164858
0.190276
0.204686
0.191019
0.176069
0.135413
0.0926458
0.0671761
0.0468231
0.0752176
0.0830456
0.0862435
0.0779969
0.0695415
0.0696144
0.0989491
0.0761594
0.0741386
0.0811927
0.0833573
0.0921695
0.105263
0.103445
0.106805
0.0915737
0.108744
0.116501
0.136867
0.149397
0.111348
0.120695
0.140764
0.140304
0.135013
0.138824
0.157162
0.148024
0.148499
0.16947
0.155196
0.191439
0.180262
0.1652
0.191628
0.163562
0.170727
0.164538
0.176288
0.174392
0.176965
0.167114
0.191879
0.212683
0.190635
0.171374
0.174714
0.167419
0.174369
0.131212
0.121759
0.108704
0.119286
0.110229
0.0939251
0.0940987
0.040223
0.0205315
0.0101409
-0.022298
-0.015479
-0.0425353
-0.0327694
-0.0160101
-0.0927236
-0.0621714
-0.0664442
-0.0792792
-0.0731222
-0.0505716
-0.0400957
-0.088397
-0.0739901
-0.0882982
-0.0668267
-0.0671833
-0.0773399
-0.0727845
-0.0705154
-0.067718
-0.0786555
-0.0721801
-0.0683704
-0.0606373
-0.0714194
-0.0667623
-0.0549129
-0.0475129
-0.0755462
-0.0670949
-0.0526902
-0.0454718
-0.0800172
-0.0481892
-0.0518322
-0.0475464
-0.0589401
-0.0648387
-0.0553728
-0.0455645
-0.0485228
-0.0414569
-0.0368365
-0.0419153
-0.0493631
-0.0678571
-0.0580966
-0.0748041
-0.0555753
-0.0512168
-0.038738
-0.0460353
-0.0687668
-0.0662511
-0.0560303
-0.0681812
-0.0643435
-0.0566822
-0.0637839
-0.0607818
-0.0714173
-0.0452069
-0.044421
-0.0619269
-0.0664423
-0.0416181
-0.0557482
-0.0919645
-0.0505657
-0.048845
-0.0497442
-0.0482087
-0.0505214
-0.0225252
-0.0547497
-0.0599192
-0.0808379
-0.0570449
-0.0765452
-0.0700209
-0.0562328
-0.0628096
-0.0846625
-0.0706384
-0.0705141
-0.0465265
-0.0771905
-0.0775719
-0.0557903
-0.0680174
-0.0727585
-0.0641805
-0.0728766
-0.0618604
-0.083395
-0.0719683
-0.0498808
-0.00660433
-0.0207928
-0.0355961
-0.0222101
-0.0284197
-0.0198245
0.00751234
0.0316558
0.0447122
0.0399896
0.0140103
-9.80992e-005
0.0186466
0.0151519
-0.0275837
-0.0163015
-0.042781
-0.071562
-0.0588111
-0.0671798
-0.0627913
-0.0365172
-0.0189412
-0.0731534
-0.0929229
-0.0756925
-0.0772646
-0.0981448
-0.08266
-0.0558573
-0.0751689
-0.0872933
-0.0903443
-0.0911169
-0.0996838
-0.089285
-0.0837969
-0.0734601
-0.0773572
-0.0874798
-0.0802646
-0.0348544
-0.0583447
-0.115215
-0.125284
-0.182275
-0.261563
-0.243939
-0.315413
-0.349786
-0.260387
-0.138223
0.110791
0.154234
0.265731
0.305752
0.249713
0.215832
0.187255
0.187278
0.192937
0.181108
0.215475
0.181197
0.168709
0.141976
0.11884
0.0878905
0.0823996
0.0893168
0.103973
0.0766962
0.0676935
0.0967243
0.0863379
0.111144
0.0775818
0.0776947
0.0971966
0.0959649
0.125611
0.112421
0.096707
0.107708
0.12129
0.142561
0.149262
0.109568
0.132107
0.124374
0.142164
0.158144
0.134173
0.144317
0.142252
0.172489
0.164072
0.152424
0.179261
0.19703
0.14969
0.159956
0.160112
0.166967
0.189917
0.185874
0.184749
0.186072
0.177217
0.171895
0.175293
0.211677
0.186263
0.152779
0.167798
0.15906
0.164962
0.158665
0.143471
0.133621
0.119292
0.0995991
0.0911783
0.0822595
0.0674314
0.0521027
0.0496307
0.0156978
-0.0110389
-0.0228353
-0.0353371
-0.080721
-0.0617989
-0.0686138
-0.0482236
-0.0999405
-0.0934584
-0.0773871
-0.0715007
-0.0597368
-0.104658
-0.101463
-0.0900384
-0.100851
-0.0614896
-0.0713449
-0.0875047
-0.0838088
-0.0899919
-0.0936542
-0.0758067
-0.0822619
-0.0895859
-0.0881345
-0.0785334
-0.046056
-0.0734692
-0.0512277
-0.0534241
-0.0863406
-0.0541503
-0.0699558
-0.0684776
-0.0728474
-0.062339
-0.0592327
-0.0965903
-0.0682113
-0.0534245
-0.0555957
-0.0623829
-0.0323682
-0.0532677
-0.0831221
-0.0663773
-0.0807364
-0.09201
-0.0643632
-0.0379701
-0.0648765
-0.0805259
-0.0796519
-0.048307
-0.0866839
-0.106175
-0.0719883
-0.0671882
-0.0698425
-0.0553262
-0.0615257
-0.0712233
-0.101604
-0.0849011
-0.0546867
-0.0547711
-0.0823985
-0.0841636
-0.0664541
-0.067567
-0.085927
-0.0856935
-0.0728441
-0.0742775
-0.0648993
-0.0801695
-0.0742727
-0.0606392
-0.0782513
-0.0795757
-0.0725065
-0.0832438
-0.0686235
-0.0913235
-0.0854706
-0.069896
-0.0847312
-0.0709425
-0.0884579
-0.0944133
-0.0722777
-0.0788624
-0.0657147
-0.0625929
-0.0702523
-0.0656324
-0.0768123
-0.0270805
-0.0296007
-0.0327463
-0.00394071
-0.0197928
0.00777318
0.0175247
0.0133044
0.0319977
0.0101333
-0.0114271
0.0196723
-0.00488307
-0.0185669
-0.0320898
-0.0509347
-0.0412429
-0.0851713
-0.0795049
-0.0654493
-0.0498183
-0.0563251
-0.0736089
-0.0827573
-0.0809019
-0.115174
-0.0806563
-0.079011
-0.090025
-0.0854755
-0.10237
-0.0714652
-0.0732323
-0.0840466
-0.0790865
-0.104539
-0.126954
-0.0853071
-0.079574
-0.0764713
-0.0877922
-0.0924959
-0.0693756
-0.101413
-0.186477
-0.229208
-0.248177
-0.287321
-0.304351
-0.187943
-0.0526696
0.179963
0.238473
0.300068
0.365803
0.274755
0.239978
0.16634
0.133667
0.184632
0.1942
0.212224
0.181511
0.154992
0.120428
0.0867869
0.0689332
0.0492895
0.0763754
0.0693565
0.0643276
0.0726778
0.0563672
0.0718746
0.0857165
0.063047
0.0854267
0.0695583
0.0804139
0.0926397
0.10309
0.0991402
0.0866698
0.0998727
0.092247
0.0936638
0.0988231
0.123554
0.118205
0.100604
0.103792
0.117437
0.135167
0.137396
0.130784
0.1416
0.13797
0.142299
0.151305
0.117933
0.120334
0.157463
0.158804
0.122787
0.138011
0.149117
0.158078
0.162595
0.155607
0.151051
0.160192
0.161861
0.162503
0.169661
0.169127
0.138697
0.137832
0.145397
0.121853
0.112289
0.0977673
0.0931011
0.0882296
0.0569581
0.0584187
0.0285851
0.0128872
-0.0100662
-0.0362487
-0.0345301
-0.0356493
-0.0406123
-0.0565461
-0.0520317
-0.0447195
-0.0618193
-0.0641934
-0.07617
-0.0995146
-0.0862652
-0.0528496
-0.0456009
-0.0848496
-0.0479892
-0.0524621
-0.060661
-0.0575902
-0.0514631
-0.0514543
-0.0934443
-0.067429
-0.0710633
-0.0527198
-0.0409069
-0.0565019
-0.0492864
-0.0508921
-0.0394901
-0.0193484
-0.0677166
-0.0652975
-0.0390025
-0.0475957
-0.0657644
-0.0523117
-0.0575711
-0.0702268
-0.051916
-0.0502325
-0.0623666
-0.0501368
-0.0475558
-0.0343263
-0.0806882
-0.0700677
-0.0691462
-0.0658177
-0.0685813
-0.0631301
-0.0575828
-0.0557445
-0.0670571
-0.0675903
-0.0594097
-0.0598986
-0.073069
-0.0653308
-0.0952214
-0.050401
-0.0670815
-0.0742843
-0.0436815
-0.0693391
-0.0569868
-0.0592312
-0.0695696
-0.053085
-0.0677475
-0.0740582
-0.079433
-0.0720908
-0.0505847
-0.0623
-0.0584775
-0.0817606
-0.0670526
-0.0512634
-0.109856
-0.0820525
-0.0771628
-0.0465363
-0.080255
-0.0805055
-0.0666936
-0.0754896
-0.083632
-0.0457558
-0.0311182
-0.0340864
-0.0317769
-0.0216882
-0.00692355
0.0114625
0.00998805
0.016082
0.0142136
0.0400298
0.0111484
0.0166832
0.0242738
0.0220781
-0.0160717
-0.064236
-0.0759451
-0.0699358
-0.0669517
-0.0523593
-0.0398274
-0.0648654
-0.0505581
-0.0670563
-0.0769632
-0.0855214
-0.0858144
-0.0673565
-0.109242
-0.0891734
-0.0775503
-0.0856719
-0.0810999
-0.0905167
-0.0811544
-0.0619915
-0.0823766
-0.0556492
-0.0717872
-0.0940152
-0.0820729
-0.0819422
-0.0857254
-0.0938644
-0.101915
-0.182072
-0.233477
-0.259212
-0.284472
-0.270645
-0.127996
-0.00797656
0.191987
0.208164
0.307124
0.324599
0.261572
0.216328
0.19568
0.165021
0.180978
0.186913
0.195449
0.179881
0.145739
0.096711
0.0819667
0.0717721
0.0693036
0.0734989
0.0786047
0.0673835
0.0641028
0.0669877
0.0744451
0.0717287
0.083116
0.07544
0.0430391
0.0686128
0.112997
0.0821144
0.0957939
0.113489
0.0900691
0.0863524
0.113156
0.13319
0.0896877
0.114929
0.111537
0.12106
0.115647
0.124727
0.133371
0.126626
0.141591
0.130941
0.143747
0.152666
0.159649
0.150553
0.152907
0.149799
0.162017
0.180705
0.166824
0.170374
0.164875
0.155562
0.157875
0.154317
0.173251
0.167053
0.141432
0.152132
0.124869
0.12342
0.136392
0.136861
0.127655
0.0883226
0.07152
0.0547926
0.0351225
0.0477325
0.0317123
0.00937604
-0.0169549
-0.0518475
-0.0505127
-0.065837
-0.0680282
-0.0608899
-0.0499726
-0.0890189
-0.0884795
-0.0849328
-0.0580003
-0.0709803
-0.0785945
-0.0722771
-0.0915384
-0.0864583
-0.0748423
-0.0819674
-0.086032
-0.0650102
-0.0645443
-0.0765785
-0.0689672
-0.0696407
-0.0503822
-0.0563769
-0.0632498
-0.0544743
-0.0609553
-0.0517253
-0.0301514
-0.04087
-0.0753186
-0.0599026
-0.0631439
-0.0779787
-0.0544365
-0.0793561
-0.0563031
-0.0686961
-0.0701653
-0.0651018
-0.0563824
-0.0378784
-0.0463627
-0.0689562
-0.0680832
-0.0603125
-0.0503423
-0.0680234
-0.0735261
-0.0855866
-0.0801316
-0.0745289
-0.0375685
-0.061922
-0.0737832
-0.0629642
-0.0723436
-0.0748195
-0.0571517
-0.0597778
-0.0797809
-0.0637073
-0.0687966
-0.0672915
-0.073659
-0.0696018
-0.0774635
-0.043335
-0.0484165
-0.0766508
-0.0755346
-0.0734962
-0.0662199
-0.0504745
-0.065913
-0.0906983
-0.0847545
-0.0573535
-0.0884418
-0.066528
-0.0631648
-0.0991495
-0.0766362
-0.0994131
-0.0826196
-0.0858944
-0.086559
-0.0829725
-0.088406
-0.0673649
-0.0290188
-0.027857
-0.0181629
-0.0164454
-0.00697754
-0.00768221
0.0230437
0.0300642
0.031653
0.024383
0.00277456
0.0110535
0.00695785
0.00113843
-0.0303135
-0.0548757
-0.0349427
-0.0483345
-0.0658108
-0.0701287
-0.0648206
-0.0499867
-0.0647119
-0.0571189
-0.0930872
-0.0821756
-0.0651611
-0.0780474
-0.11357
-0.0921961
-0.0791315
-0.0815591
-0.0922935
-0.0780646
-0.091371
-0.0947818
-0.101415
-0.0844344
-0.0792671
-0.0964505
-0.0903781
-0.0769997
-0.0894184
-0.0889721
-0.0783514
-0.147004
-0.270528
-0.271416
-0.316959
-0.329579
-0.246485
-0.122167
0.0785257
0.14269
0.250361
0.296598
0.238902
0.220571
0.175436
0.159261
0.181869
0.173613
0.20424
0.20692
0.167879
0.127027
0.0957632
0.0736917
0.0526061
0.0636248
0.0991674
0.0771349
0.0675305
0.0982201
0.069606
0.0755386
0.0707334
0.0986905
0.0869111
0.0799632
0.11205
0.0934079
0.0720688
0.114631
0.106858
0.112958
0.113091
0.108356
0.13532
0.129499
0.13738
0.128714
0.11842
0.148913
0.142992
0.167502
0.160292
0.159064
0.168243
0.166388
0.166506
0.160906
0.166197
0.162205
0.170722
0.165507
0.160583
0.180701
0.192689
0.189043
0.193637
0.164338
0.171444
0.170583
0.172431
0.151113
0.152269
0.152286
0.127677
0.137823
0.104067
0.12756
0.0932267
0.0697691
0.0790998
0.0356452
0.0223935
0.00221565
-0.0173071
-0.0207521
-0.0480272
-0.0531464
-0.0617858
-0.0216672
-0.0508083
-0.0889235
-0.0920126
-0.0797607
-0.0763065
-0.0540748
-0.0469796
-0.101079
-0.0937983
-0.0925429
-0.081633
-0.0988965
-0.0850641
-0.0728791
-0.0355607
-0.0347448
-0.0557939
-0.0658214
-0.0698212
-0.0653776
-0.0605141
-0.0786198
-0.0601524
-0.0615413
-0.0511902
-0.0182189
-0.0474094
-0.0838676
-0.00690097
-0.0390036
-0.0769596
-0.0743012
-0.0779013
-0.0645949
-0.0347537
-0.0480372
-0.0514512
-0.0601355
-0.0425628
-0.0334821
-0.0744862
-0.0708818
-0.0694803
-0.0586081
-0.0701733
-0.0605424
-0.0527363
-0.0748227
-0.050607
-0.0518536
-0.109301
-0.0741051
-0.0541107
-0.062299
-0.0744087
-0.0620287
-0.0482264
-0.0552581
-0.0695434
-0.0688054
-0.0397
-0.0721401
-0.0713837
-0.0823147
-0.0568507
-0.0712743
-0.0830739
-0.0656319
-0.0594231
-0.0643261
-0.0618646
-0.0562787
-0.0500136
-0.0716892
-0.0681399
-0.0815194
-0.0548334
-0.0745652
-0.090064
-0.0801894
-0.0782139
-0.0728619
-0.0694273
-0.0664952
-0.0692698
-0.0528983
-0.0555672
-0.0867745
-0.0789115
-0.0351448
-0.0333974
-0.0340509
-0.0299004
-0.0103984
-0.0236144
-0.0126165
0.0135726
0.0181704
0.0381552
0.0283652
0.0193913
0.00619818
-0.0156935
0.0387811
-0.0189237
-0.0471882
-0.0623728
-0.0637781
-0.0825197
-0.078287
-0.0641837
-0.0380814
-0.0682704
-0.0500895
-0.0657814
-0.0732956
-0.0717504
-0.0762942
-0.10902
-0.0863033
-0.0783854
-0.0623562
-0.0740033
-0.0625336
-0.0818728
-0.0442579
-0.100799
-0.100518
-0.120744
-0.0803785
-0.0766647
-0.0930115
-0.0930723
-0.0739084
-0.0888363
-0.154486
-0.23095
-0.276684
-0.28698
-0.311102
-0.233509
-0.106388
0.112684
0.201665
0.270149
0.37181
0.286722
0.238247
0.188182
0.12941
0.187336
0.189846
0.22768
0.194842
0.157971
0.111668
0.0841142
0.0764575
0.0790664
0.0690242
0.0707927
0.0843688
0.0753439
0.0646062
0.0924657
0.101911
0.0719378
0.0703964
0.0942522
0.119196
0.121124
0.0918988
0.0815895
0.085918
0.0971044
0.0864392
0.110474
0.129153
0.132527
0.107815
0.146599
0.122853
0.12544
0.135117
0.145134
0.127545
0.112099
0.148495
0.180744
0.173047
0.119082
0.121081
0.161497
0.137639
0.146483
0.178044
0.177912
0.164598
0.178596
0.175168
0.13849
0.137788
0.164931
0.154754
0.159074
0.167137
0.146572
0.121644
0.135189
0.138132
0.0929878
0.129326
0.0758032
0.050948
0.0422157
0.00683326
0.0151098
-0.00230966
-0.00283225
-0.019803
-0.0625935
-0.0292458
-0.0735534
-0.0688711
-0.0868836
-0.0964736
-0.0768316
-0.0818386
-0.0700461
-0.0850295
-0.0739722
-0.106812
-0.0611086
-0.0961175
-0.087106
-0.0922197
-0.0663675
-0.058326
-0.047926
-0.0580948
-0.0593697
-0.0666539
-0.0504784
-0.0742642
-0.0998199
-0.0974994
-0.0768495
-0.0615615
-0.0299729
-0.022201
-0.0467418
-0.0552471
-0.0577457
-0.0878475
-0.0628556
-0.0649392
-0.0509646
-0.0552191
-0.0209907
-0.0577654
-0.0861039
-0.0701383
-0.0729831
-0.109139
-0.039716
-0.0542461
-0.0669171
-0.0503016
-0.0584555
-0.0885222
-0.0531411
-0.0403317
-0.0472158
-0.0738979
-0.0792358
-0.086846
-0.0913772
-0.0727612
-0.049403
-0.101645
-0.0643587
-0.0443302
-0.0751034
-0.0539004
-0.0836043
-0.0585198
-0.056156
-0.0554336
-0.0645218
-0.0879804
-0.0561835
-0.0268954
-0.0468651
-0.116359
-0.0947863
-0.0982089
-0.0814048
-0.085471
-0.04351
-0.0608924
-0.0805466
-0.0769878
-0.0945018
-0.0677897
-0.0799431
-0.0820262
-0.0597113
-0.030174
-0.0303967
-0.0369547
-0.0155054
-0.0064515
-0.0325472
-0.00150731
0.0161163
0.025329
0.0319013
0.0310786
-0.00340762
0.027313
0.0347188
-0.0284665
-0.0193593
-0.0653254
-0.045399
-0.043121
-0.0794202
-0.084963
-0.081457
-0.0631064
-0.0480785
-0.03279
-0.0617368
-0.0870122
-0.0469887
-0.0820368
-0.110282
-0.0995955
-0.123128
-0.0741162
-0.110967
-0.0998799
-0.0605362
-0.114878
-0.0716607
-0.079896
-0.0823279
-0.0823671
-0.0934239
-0.0628345
-0.079743
-0.107456
-0.114109
-0.179907
-0.205747
-0.237486
-0.310054
-0.304544
-0.131284
0.00962254
0.229944
0.237676
0.339756
0.32986
0.253015
0.220798
0.15159
0.171855
0.17197
0.172961
0.204344
0.178315
0.187633
0.104866
0.056316
0.0807597
0.0713913
0.0975851
0.0575309
0.0606105
0.0826339
0.0937755
0.0849207
0.067151
0.0668489
0.0848624
0.0604443
0.0837619
0.122888
0.0810283
0.0761729
0.10215
0.0982831
0.100091
0.102123
0.0973019
0.119867
0.110638
0.138816
0.129086
0.106137
0.135482
0.128912
0.124297
0.126954
0.136479
0.1539
0.135208
0.130617
0.128686
0.142244
0.190088
0.162628
0.157917
0.159241
0.140205
0.147896
0.173298
0.175541
0.164809
0.163099
0.147903
0.11016
0.143781
0.159678
0.14899
0.103883
0.114926
0.102682
0.138127
0.095922
0.0376232
0.0164885
0.00036751
0.0353532
0.0239751
-0.00797859
-0.0283202
-0.0512396
-0.0486238
-0.0568155
-0.0738888
-0.0704217
-0.0900358
-0.0417794
-0.0575549
-0.0632815
-0.0799282
-0.081943
-0.0849009
-0.0571415
-0.0662449
-0.0619332
-0.0839502
-0.0809545
-0.0755926
-0.0928502
-0.0934871
-0.057954
-0.0377096
-0.0388499
-0.0333768
-0.0749069
-0.0669488
-0.0839043
-0.0576785
-0.0517569
-0.0532873
-0.0540826
-0.0746037
-0.0930815
-0.0510241
-0.0286137
-0.065224
-0.0707145
-0.0571051
-0.0622742
-0.0740087
-0.0664472
-0.0680365
-0.018422
-0.0495474
-0.0958938
-0.0820129
-0.0673566
-0.0646338
-0.041736
-0.0534853
-0.0791192
-0.0807255
-0.0817165
-0.0907312
-0.0866802
-0.0527758
-0.0301207
-0.0776071
-0.0546711
-0.0647283
-0.0680125
-0.0813692
-0.0891166
-0.0874073
-0.0766541
-0.0760767
-0.0596238
-0.0800995
-0.0847928
-0.0675652
-0.0771367
-0.0708555
-0.102376
-0.0706904
-0.0484775
-0.0513484
-0.0622218
-0.0909336
-0.0859468
-0.0593205
-0.066796
-0.0667739
-0.0836718
-0.0944601
-0.0581729
-0.0826702
-0.084582
-0.101447
-0.0760216
-0.0889936
-0.0731682
-0.0248187
-0.0151274
-0.0304122
-0.048893
-0.0315931
-0.0055257
0.0105482
0.0406406
0.0352127
0.0368542
0.037912
0.0204103
-0.0106076
-0.0153293
-0.0437643
-0.0236627
-0.0456393
-0.0821019
-0.0324385
-0.0454868
-0.0854282
-0.0597729
-0.0627455
-0.0647889
-0.0592355
-0.0796754
-0.0771475
-0.0783624
-0.0792091
-0.0720178
-0.0705035
-0.0548597
-0.120962
-0.0726249
-0.0857705
-0.0839205
-0.0779907
-0.0885668
-0.0878986
-0.0624164
-0.083098
-0.117734
-0.060119
-0.0757731
-0.109812
-0.165257
-0.231426
-0.250582
-0.287899
-0.337729
-0.195361
-0.0630097
0.104077
0.130462
0.20028
0.31717
0.252474
0.215028
0.180697
0.18595
0.198898
0.193798
0.249721
0.198669
0.143235
0.129399
0.0866667
0.0724696
0.0929268
0.0964719
0.0826665
0.0676634
0.066748
0.0924288
0.0530649
0.0969579
0.0687137
0.0704143
0.104129
0.100099
0.0994001
0.084741
0.121244
0.127031
0.0978025
0.108068
0.135635
0.0901517
0.119088
0.162234
0.170206
0.148454
0.162757
0.179039
0.135639
0.128067
0.134138
0.12002
0.148958
0.148029
0.154661
0.180681
0.187751
0.190645
0.173472
0.163213
0.166189
0.161882
0.185018
0.193048
0.197892
0.177623
0.166104
0.153842
0.202908
0.26411
0.185205
0.111113
0.123596
0.11101
0.0973464
0.106279
0.114902
0.0991416
0.0460473
0.0442499
0.0259309
-0.0121395
0.0115939
0.0159338
-0.027097
-0.0638277
-0.0632869
-0.0632232
-0.0511693
-0.0714705
-0.0468895
-0.0265519
-0.118548
-0.09761
-0.0728394
-0.0897621
-0.0756449
-0.0766475
-0.0746818
-0.0891769
-0.0643878
-0.0675711
-0.0444492
-0.0803763
-0.0735785
-0.0467238
-0.0971997
-0.0760202
-0.0478477
-0.0619561
-0.0705831
-0.0155787
-0.0915379
-0.0732029
-0.0323306
-0.0927912
-0.0564566
-0.0750692
-0.0646925
-0.0307225
-0.0422225
-0.0657949
-0.071683
-0.0424437
-0.0511512
-0.0567023
-0.0604392
-0.0904124
-0.0616308
-0.0487631
-0.0961548
-0.0611713
-0.0181805
-0.0543838
-0.0917923
-0.0777185
-0.0467634
-0.0456253
-0.0937892
-0.0916088
-0.0483771
-0.0519015
-0.0887403
-0.0531224
-0.0692749
-0.0519572
-0.0895392
-0.0685982
-0.0533385
-0.0457374
-0.0595543
-0.0797343
-0.0631049
-0.0513983
-0.0651102
-0.0382251
-0.108351
-0.0761399
-0.0563937
-0.0665393
-0.0789691
-0.0602798
-0.073589
-0.0693557
-0.0902678
-0.0719183
-0.0872702
-0.0781732
-0.0853615
-0.0615381
-0.0681556
-0.0642393
-0.0427745
-0.0813808
-0.068484
-0.0888415
-0.0821076
-0.0691146
-0.0622846
-0.0402594
-0.0812143
-0.0619805
-0.0901052
-0.0819126
-0.0368192
-0.0413154
-0.016836
-0.00970106
-0.00532521
-0.00933423
0.00270114
0.0233982
0.0154146
0.018678
0.0210316
0.0345648
0.00565464
-0.00764555
-0.019763
-0.0236682
-0.0378195
-0.0591898
-0.0418095
-0.0504402
-0.0614301
-0.0397237
-0.0553076
-0.0499302
-0.0811576
-0.0772735
-0.0752751
-0.0767352
-0.0899166
-0.0537654
-0.096146
-0.10267
-0.0937495
-0.0867243
-0.0719065
-0.0758747
-0.0741174
-0.078613
-0.0563928
-0.0784309
-0.0893052
-0.0986363
-0.0904644
-0.068933
-0.101187
-0.160371
-0.2064
-0.238531
-0.332352
-0.299912
-0.218679
-0.130131
0.0440333
0.146837
0.207988
0.293597
0.252005
0.202157
0.178919
0.189182
0.185185
0.18522
0.231376
0.188305
0.200353
0.140941
0.0875152
0.0828533
0.0762039
0.0857477
0.0820924
0.105854
0.0952479
0.0792287
0.0652125
0.0758665
0.0996547
0.0927194
0.0831633
0.105537
0.103331
0.0720359
0.131185
0.136908
0.0947989
0.115554
0.101973
0.13767
0.133445
0.158883
0.139595
0.120639
0.144085
0.148533
0.127791
0.118656
0.179217
0.178496
0.129977
0.166154
0.164716
0.156104
0.152064
0.172529
0.172867
0.159916
0.179339
0.17975
0.222196
0.191839
0.149119
0.176988
0.195779
0.198061
0.158896
0.20518
0.1702
0.152297
0.160915
0.152828
0.105263
0.0941947
0.13132
0.052729
0.0435061
0.0421541
0.0200798
0.0201892
0.00948416
-0.0123693
-0.0212384
-0.0630476
-0.0480122
-0.065739
-0.0768012
-0.0610275
-0.0701899
-0.0621402
-0.0419256
-0.101997
-0.0663926
-0.0902656
-0.109932
-0.113945
-0.0760677
-0.0634358
-0.0682434
-0.101395
-0.0648719
-0.0640466
-0.0902034
-0.0861536
-0.0823399
-0.0764337
-0.0760077
-0.0790613
-0.0421028
-0.0574978
-0.0464641
-0.00910669
-0.0481996
-0.0701297
-0.0747999
-0.0637805
-0.0661698
-0.0847146
-0.0804583
-0.0391981
-0.0431735
-0.05527
-0.0479124
-0.0921967
-0.0865097
-0.0944313
-0.0702994
-0.0577828
-0.0614574
-0.0468741
-0.00555052
-0.065218
-0.0954836
-0.0704127
-0.0550731
-0.0901002
-0.0899706
-0.0933194
-0.0572351
-0.0340762
-0.083053
-0.0715314
-0.0552731
-0.10101
-0.0839749
-0.0552703
-0.0815763
-0.082297
-0.0411206
-0.0109931
-0.0525256
-0.0399568
-0.0795498
-0.101683
-0.0870995
-0.0576637
-0.0763623
-0.105942
-0.0630893
-0.0696498
-0.0865982
-0.098579
-0.0833738
-0.0512817
-0.0737042
-0.0714874
-0.0655743
-0.0676615
-0.055309
-0.106523
-0.0993713
-0.0880656
-0.0825709
-0.0732689
-0.0563657
-0.066331
-0.0369321
-0.0520397
-0.0502574
-0.069339
-0.063336
-0.0309761
-0.0368614
-0.0303162
-0.0277176
0.0234533
-0.0170868
0.0241028
0.0125403
0.0304304
0.0530104
0.0167594
-0.0130703
-0.0216672
-0.0179883
-0.0417125
-0.0573298
-0.0672249
-0.0658934
-0.0551408
-0.0549701
-0.0673782
-0.0331221
-0.0349839
-0.078184
-0.0770386
-0.107403
-0.11245
-0.0786778
-0.0851677
-0.0861085
-0.0585264
-0.0842276
-0.0969536
-0.0791439
-0.0832336
-0.0686201
-0.0702443
-0.0737586
-0.0922536
-0.0826478
-0.0617865
-0.109308
-0.0498327
-0.0774858
-0.168586
-0.234326
-0.276475
-0.257774
-0.253377
-0.21605
-0.110486
0.0491968
0.199391
0.230743
0.363496
0.335563
0.248887
0.200907
0.172221
0.183638
0.174222
0.186451
0.207434
0.166723
0.139834
0.0950298
0.0840958
0.0866626
0.0837122
0.0810282
0.070668
0.127585
0.0565694
0.0892311
0.111212
0.0431477
0.0729598
0.0281926
0.0744241
0.0705179
0.0983273
0.120006
0.107566
0.111369
0.108826
0.0910806
0.108796
0.0959143
0.113275
0.0811297
0.105149
0.138122
0.116327
0.121325
0.176442
0.139435
0.101851
0.139703
0.16471
0.128117
0.120862
0.131589
0.14704
0.153728
0.150166
0.173254
0.1643
0.194339
0.167362
0.151661
0.171667
0.181932
0.163586
0.14168
0.159655
0.151088
0.143373
0.195659
0.164796
0.0933424
0.0623585
0.0813154
0.111689
0.0721229
0.0468477
0.0322796
0.00749411
-0.00755898
-0.0133352
-0.0174317
-0.0357859
-0.0762814
-0.059556
-0.0516523
-0.0471482
-0.0676338
-0.0911946
-0.0785576
-0.0568361
-0.0700958
-0.0841004
-0.0712894
-0.0367195
-0.0229579
-0.0472251
-0.0391116
-0.0355527
-0.0521395
-0.0481395
-0.0444428
-0.0293583
-0.0558817
-0.0941469
-0.0797106
-0.0656121
-0.0574559
-0.0711754
-0.0369723
-0.0238591
-0.0377306
-0.0433707
-0.0414129
-0.0885756
-0.0616032
-0.0797974
-0.0338989
-0.0303954
-0.0371254
-0.0633388
-0.0649896
-0.0378511
-0.0248096
-0.0645195
-0.0882499
-0.0844808
-0.0641419
-0.060477
-0.0557525
-0.0534577
-0.0743532
-0.0738131
-0.0553994
-0.024718
-0.00583922
-0.0626486
-0.0890257
-0.0376271
-0.0382926
-0.0863186
-0.0584412
-0.0767498
-0.0890025
-0.0525688
-0.0661635
-0.0887116
-0.0777853
-0.0654898
-0.0755926
-0.0734256
-0.0545429
-0.0490632
-0.0709226
-0.0954399
-0.0363103
-0.0378922
-0.0904095
-0.108315
-0.0741872
-0.065759
-0.0797591
-0.0419281
-0.0725745
-0.0636803
-0.0669841
-0.0524497
-0.0764841
-0.0953604
-0.0748422
-0.0881136
-0.0630876
-0.0411261
-0.0365671
-0.04055
-0.0572932
-0.0109409
0.0181835
-0.023895
-0.0106692
0.00935918
0.0268606
0.0373865
0.0606777
0.038961
0.0229192
0.00805686
-0.0107679
-0.0186523
-0.022261
-0.0625035
-0.0595823
-0.0595443
-0.0599085
-0.0401474
-0.0537974
-0.0631803
-0.101169
-0.0861637
-0.0654769
-0.0576478
-0.085718
-0.0919352
-0.0285948
-0.0641102
-0.0859303
-0.0873119
-0.0839288
-0.0540746
-0.0869334
-0.0916571
-0.0969941
-0.0762259
-0.0417147
-0.0799083
-0.0876722
-0.110758
-0.0439791
-0.103588
-0.16497
-0.211891
-0.280555
-0.281215
-0.282753
-0.224953
-0.069915
0.131771
0.171625
0.204983
0.326615
0.27846
0.249759
0.20879
0.166832
0.175232
0.160482
0.208134
0.216949
0.185514
0.135492
0.0779227
0.0741322
0.0355059
0.0482571
0.0584896
0.078855
0.105657
0.0740908
0.0676717
0.0661786
0.0656049
0.0710864
0.0798272
0.0836383
0.111404
0.0640868
0.0753787
0.06671
0.125208
0.0932423
0.0703277
0.101525
0.0907461
0.102318
0.126551
0.0803611
0.0997536
0.129995
0.1548
0.0701962
0.103159
0.118175
0.14369
0.119655
0.14489
0.174681
0.143036
0.157804
0.131603
0.170627
0.160178
0.121455
0.145282
0.157587
0.161354
0.173568
0.175454
0.17327
0.150599
0.151815
0.118741
0.128293
0.158077
0.103657
0.107751
0.0954401
0.0760032
0.0609223
0.0228152
0.0240548
0.0196531
0.0296821
0.00587235
-0.00496504
-0.052444
-0.0628048
-0.0446234
-0.0997807
-0.0864794
-0.0668384
-0.0761232
-0.0659978
-0.0830454
-0.0696812
-0.0580763
-0.129389
-0.0705409
-0.0887407
-0.096285
-0.0582119
-0.0608909
-0.0713363
-0.071775
-0.0402569
-0.0542212
-0.082636
-0.0734941
-0.0901093
-0.0543511
-0.0560437
-0.0598329
-0.0691616
-0.0867206
-0.0775053
-0.0596348
-0.0554569
-0.0623366
-0.0676052
-0.0447036
-0.0650207
-0.0646247
-0.0530977
-0.0336147
-0.110736
-0.0612649
-0.0775478
-0.0864613
-0.0546311
-0.0775218
-0.0643122
-0.0703171
-0.0766787
-0.0556996
-0.0697905
-0.0689755
-0.0510402
-0.0579324
-0.0518614
-0.0554447
-0.0471434
-0.0527245
-0.0743722
-0.0612199
-0.0713493
-0.0836017
-0.096398
-0.0812084
-0.0628257
-0.0783536
-0.0862682
-0.084156
-0.0825747
-0.0677228
-0.0543566
-0.0849518
-0.058944
-0.0586619
-0.109119
-0.085342
-0.0664192
-0.0565217
-0.0535223
-0.0703403
-0.0944685
-0.0905078
-0.0657327
-0.105164
-0.0904316
-0.0797186
-0.0741209
-0.0735502
-0.0627739
-0.0875778
-0.0470231
-0.0280444
-0.029844
-0.0294213
-0.048004
-0.0144904
0.00189573
0.0376213
0.0159078
0.0170846
0.0236837
0.0187223
0.0140296
0.0313262
-0.045355
-0.000602234
-0.0475841
-0.0845278
-0.071123
-0.0793941
-0.0823681
-0.0569609
-0.0670235
-0.0654767
-0.0741715
-0.0857987
-0.0763591
-0.0761527
-0.0825469
-0.073799
-0.0871002
-0.07284
-0.0868133
-0.0592289
-0.0813064
-0.0924056
-0.0554617
-0.0638636
-0.103369
-0.0888028
-0.072909
-0.0511535
-0.108123
-0.0689768
-0.0893738
-0.0796526
-0.166033
-0.234673
-0.276881
-0.31979
-0.311626
-0.201104
-0.0842515
0.150156
0.19663
0.251332
0.302936
0.24215
0.214712
0.201532
0.180738
0.189426
0.185474
0.228409
0.191551
0.182242
0.149024
0.0997396
0.0606519
0.0770454
0.0729656
0.0596962
0.0858
0.0823127
0.0999871
0.104809
0.0382527
0.0756632
0.0666898
0.092679
0.0837847
0.0824544
0.128167
0.105839
0.10617
0.110809
0.117266
0.123399
0.104842
0.124505
0.131917
0.128614
0.141185
0.160683
0.132877
0.142174
0.161318
0.162428
0.147493
0.150409
0.162585
0.168323
0.177015
0.19122
0.167244
0.177264
0.184489
0.183778
0.208936
0.164574
0.156268
0.207696
0.193601
0.165646
0.154463
0.19969
0.175015
0.202347
0.166139
0.140999
0.123755
0.110387
0.100839
0.102483
0.0844088
0.0545477
0.0606463
0.0218065
-0.0184353
-0.00515501
-0.0066301
-0.0360414
-0.0479495
-0.0609442
-0.0426827
-0.0475087
-0.0756052
-0.0736059
-0.0541537
-0.0620936
-0.0599582
-0.0620065
-0.0622279
-0.0791881
-0.07547
-0.0818701
-0.0700182
-0.0767843
-0.0592599
-0.0529361
-0.080142
-0.0535424
-0.0533248
-0.0584581
-0.0395083
-0.0546818
-0.0584469
-0.0468709
-0.057973
-0.0492711
-0.0483412
-0.0655614
-0.0584448
-0.0629875
-0.0473372
-0.0250004
-0.0636926
-0.0870757
-0.0647346
-0.0778119
-0.0774961
-0.0806257
-0.0606909
-0.0503079
-0.060927
-0.0700007
-0.0602358
-0.0750406
-0.0547015
-0.0688585
-0.0675319
-0.0553559
-0.0440364
-0.0890469
-0.0598262
-0.0631199
-0.0847587
-0.065505
-0.0444237
-0.0499611
-0.050818
-0.0574672
-0.0763901
-0.0957699
-0.0703481
-0.0776579
-0.07728
-0.0705421
-0.089222
-0.0672371
-0.0707599
-0.0940981
-0.0867452
-0.0386642
-0.0907125
-0.0963246
-0.0770134
-0.0888071
-0.0798836
-0.0719066
-0.069569
-0.0859537
-0.0935998
-0.0859373
-0.085883
-0.0494657
-0.0368552
-0.0200203
-0.0128107
0.00315447
-0.00624356
0.00730086
0.0101805
-0.0152817
0.0361886
0.0239207
0.0104255
0.0290539
0.00471886
-0.0488137
-0.0691493
-0.0775602
-0.0761162
-0.0534561
-0.0879057
-0.0858077
-0.0588957
-0.0612973
-0.0736427
-0.133035
-0.093139
-0.0715616
-0.0943186
-0.0917579
-0.101276
-0.100263
-0.0937018
-0.0642343
-0.0995932
-0.0984051
-0.0803063
-0.0685727
-0.0920428
-0.113993
-0.0963345
-0.0852607
-0.0782585
-0.0768494
-0.105894
-0.137943
-0.158242
-0.225995
-0.284641
-0.310002
-0.331935
-0.271183
-0.156923
0.027488
0.14372
0.207511
0.293366
0.256475
0.230544
0.184742
0.189152
0.183088
0.174284
0.176041
0.174622
0.183851
0.144847
0.105276
0.0439171
0.0676286
0.0760404
0.0638918
0.0652928
0.063817
0.0835897
0.0627704
0.0772833
0.073367
0.0577909
0.0855384
0.0890961
0.0661132
0.101449
0.10565
0.0954165
0.118134
0.105477
0.0915249
0.106278
0.123144
0.111032
0.126577
0.140539
0.13946
0.149606
0.117821
0.134552
0.130612
0.120138
0.141671
0.159558
0.148592
0.156732
0.159048
0.130162
0.148349
0.140929
0.179064
0.202176
0.168881
0.163003
0.17358
0.188767
0.171584
0.144729
0.173497
0.143724
0.134921
0.127061
0.130537
0.145965
0.0985383
0.130503
0.108495
0.0762109
0.0483204
0.0320797
0.025771
0.0230304
0.000573349
0.00636993
-0.0576055
-0.0842075
-0.0754155
-0.0904166
-0.100775
-0.0883858
-0.075356
-0.0638811
-0.0750188
-0.0923937
-0.0991874
-0.0993342
-0.0661799
-0.0963177
-0.102646
-0.0850552
-0.0770358
-0.0772395
-0.0694514
-0.0786914
-0.0589106
-0.0632741
-0.0600276
-0.0795417
-0.0456386
-0.0827251
-0.0699143
-0.0624598
-0.0636368
-0.0636143
-0.0365785
-0.0468601
-0.0433797
-0.0468066
-0.05985
-0.0615111
-0.0679093
-0.0605884
-0.0780422
-0.0775312
-0.079693
-0.0759932
-0.0568857
-0.0753123
-0.0688406
-0.0782788
-0.017024
-0.0610414
-0.0855843
-0.0770176
-0.0734026
-0.0678212
-0.0918491
-0.0698433
-0.060148
-0.0732082
-0.0685354
-0.0792479
-0.0688562
-0.0721948
-0.0648979
-0.0432229
-0.0730384
-0.0835267
-0.0713395
-0.0916504
-0.077824
-0.0830157
-0.0416851
-0.071608
-0.101761
-0.0716103
-0.0920309
-0.0749566
-0.0869293
-0.0944568
-0.100712
-0.0870252
-0.0762321
-0.0772466
-0.0818217
-0.0722878
-0.0649876
-0.0163216
-0.00845153
-0.0309804
-0.0335637
3.23638e-005
-0.0100054
-0.00235621
0.0249935
0.022342
-0.00396352
0.0016952
0.00900857
0.00716536
-0.0165614
-0.00704446
-0.0471391
-0.0892444
-0.0706018
-0.0884332
-0.0550655
-0.0562643
-0.0540992
-0.0675292
-0.0765713
-0.100156
-0.085458
-0.0901741
-0.0854761
-0.0801668
-0.0825535
-0.0857487
-0.0973635
-0.0924195
-0.0902952
-0.0702747
-0.0820259
-0.0985534
-0.0994055
-0.092136
-0.115425
-0.0801875
-0.0995133
-0.106326
-0.103885
-0.143302
-0.200271
-0.264043
-0.262001
-0.288461
-0.213883
-0.0862239
0.0870332
0.240606
0.268626
0.38504
0.340636
0.262041
0.195997
0.171862
0.184007
0.152617
0.156798
0.181775
0.15885
0.117504
0.127351
0.0745856
0.0775979
0.0848751
0.0673575
0.0556556
0.0713666
0.0835138
0.102986
0.0804564
0.0433066
0.0701427
0.0728078
0.0814002
0.0637117
0.082095
0.091887
0.091596
0.0691158
0.165023
0.120031
0.0766334
0.077797
0.122165
0.107599
0.0960945
0.114166
0.104504
0.115768
0.121246
0.122975
0.154596
0.140017
0.153981
0.145799
0.151503
0.150887
0.131474
0.144996
0.186324
0.167562
0.129832
0.148781
0.146972
0.174026
0.166083
0.171238
0.172982
0.137055
0.133821
0.157893
0.144164
0.140285
0.077322
0.0906094
0.0958543
0.0635299
0.0707305
0.0509629
0.0395448
0.0228071
0.000990628
-0.00472559
-0.0136822
-0.0461243
-0.0433849
-0.0217064
-0.074128
-0.047486
-0.046285
-0.0487114
-0.0777134
-0.0636713
-0.0703529
-0.0566111
-0.0561111
-0.0703
-0.0755253
-0.0651869
-0.0549266
-0.0285081
-0.0365613
-0.0668674
-0.057045
-0.0550996
-0.0657601
-0.0735383
-0.0768215
-0.0438698
-0.0349453
-0.0778893
-0.0284914
-0.0555387
-0.042546
-0.0482897
-0.0478188
-0.042431
-0.042133
-0.0451908
-0.0770649
-0.0523937
-0.0563661
-0.0437352
-0.0308459
-0.0391663
-0.0365139
-0.0563996
-0.0625812
-0.0615507
-0.050327
-0.0479066
-0.0785688
-0.0539646
-0.0304874
-0.0694297
-0.0403975
-0.0788792
-0.0759963
-0.0377254
-0.0644102
-0.0738114
-0.0582769
-0.046844
-0.048428
-0.0562664
-0.0860285
-0.0746377
-0.0705347
-0.0687476
-0.0670037
-0.0788595
-0.0698719
-0.0622405
-0.0659136
-0.0366181
-0.0740685
-0.046823
-0.100096
-0.0741684
-0.0661189
-0.0803925
-0.072286
-0.0742098
-0.0717781
-0.0586335
-0.0617279
-0.0310507
-0.0344932
-0.0399132
-0.00537863
-0.00801055
-0.0198742
-0.0179124
-0.00676248
0.00756989
0.00388343
0.0103715
0.0195447
0.026555
0.0300295
0.0219206
-0.00112524
-0.0529924
-0.0680979
-0.0821588
-0.0617597
-0.0590468
-0.061423
-0.0219723
-0.0463528
-0.0573309
-0.0792977
-0.0784925
-0.0788797
-0.0745782
-0.0708784
-0.0778138
-0.0751265
-0.0929812
-0.0790921
-0.0714161
-0.0773335
-0.0360902
-0.0803232
-0.0831745
-0.0961635
-0.0747418
-0.0950481
-0.127792
-0.10905
-0.0972862
-0.0989341
-0.141895
-0.208482
-0.24389
-0.271844
-0.284751
-0.204268
-0.0860582
0.0882993
0.206736
0.236227
0.333467
0.271444
0.224632
0.173655
0.181538
0.186117
0.167379
0.167623
0.176171
0.220824
0.160663
0.095781
0.0492948
0.0353867
0.0293128
0.0463823
0.0598577
0.0736107
0.0748878
0.0534751
0.0551649
0.0649961
0.0709683
0.0717149
0.0771399
0.0729504
0.0762733
0.0813629
0.0987349
0.0732258
0.0978081
0.0778349
0.100869
0.0958475
0.0795556
0.0927237
0.109872
0.120645
0.109954
0.105879
0.121625
0.102578
0.120851
0.136004
0.124089
0.15549
0.151001
0.148552
0.142951
0.142017
0.140274
0.13934
0.162954
0.150789
0.141461
0.164777
0.155637
0.146277
0.131564
0.175263
0.176961
0.112994
0.113527
0.11923
0.11945
0.114807
0.0913754
0.079843
0.0398897
0.0407822
0.0400635
-0.00304936
-0.0224407
-0.0164056
-0.0269301
-0.0544689
-0.0523492
-0.0611587
-0.0514096
-0.0587396
-0.0750977
-0.0706206
-0.0710778
-0.0609134
-0.0617051
-0.0840326
-0.08997
-0.123095
-0.0877354
-0.0817555
-0.0823581
-0.086527
-0.0772276
-0.0497693
-0.0648738
-0.0792576
-0.0654116
-0.074283
-0.0537377
-0.0700606
-0.0779617
-0.075774
-0.061192
-0.0654626
-0.0502395
-0.0615934
-0.0497869
-0.0729711
-0.061807
-0.0552809
-0.0821729
-0.0736
-0.068675
-0.0475914
-0.0570245
-0.0668489
-0.0654874
-0.0573264
-0.0856015
-0.077322
-0.0506427
-0.0645288
-0.0519934
-0.0788567
-0.0651029
-0.0735173
-0.0698437
-0.0247424
-0.0651672
-0.076196
-0.0746286
-0.086693
-0.0775907
-0.0543143
-0.0593488
-0.0889393
-0.087393
-0.0788669
-0.071177
-0.0671748
-0.0623052
-0.0491136
-0.0658097
-0.0858734
-0.0895728
-0.0614865
-0.0567475
-0.103571
-0.0795792
-0.0854619
-0.0732911
-0.0773567
-0.0823873
-0.0552888
-0.0596026
-0.0566348
-0.0671158
-0.0824369
-0.0739928
-0.0898165
-0.0803322
-0.0700058
-0.0508702
-0.022823
-0.0230788
-0.0242981
-0.00705988
-0.00982698
-0.00183107
0.000765008
0.0337204
0.0238132
0.00846678
-0.00733691
0.0127154
0.0130509
-0.0131942
-0.0331669
-0.0735853
-0.0702165
-0.0721044
-0.0599225
-0.0387347
-0.0697354
-0.0622108
-0.0707838
-0.066266
-0.0811675
-0.0898261
-0.0872462
-0.0998291
-0.0801373
-0.0885916
-0.0890426
-0.0743666
-0.0931259
-0.0744109
-0.0870299
-0.0885245
-0.0886282
-0.102555
-0.0909292
-0.0844697
-0.0994192
-0.0681561
-0.0970578
-0.119557
-0.145941
-0.234917
-0.275044
-0.300461
-0.324953
-0.23621
-0.117056
0.10856
0.163088
0.184518
0.281169
0.227912
0.187879
0.194076
0.178597
0.180897
0.155884
0.19712
0.207056
0.177383
0.165963
0.101654
0.065248
0.0642046
0.0591894
0.0917206
0.0882778
0.0778731
0.0670701
0.0629186
0.0824032
0.068008
0.0850479
0.0865935
0.0915866
0.100061
0.102779
0.0906272
0.11071
0.0902913
0.109874
0.113667
0.1245
0.111258
0.117999
0.121964
0.154802
0.13863
0.142069
0.137652
0.131471
0.134303
0.152951
0.161052
0.182303
0.165494
0.154135
0.158306
0.173096
0.185047
0.189271
0.198437
0.181572
0.19392
0.199737
0.186973
0.201495
0.227816
0.185347
0.170159
0.176561
0.159513
0.15823
0.13727
0.126131
0.1261
0.104639
0.102775
0.0925532
0.0785979
0.0556441
-0.00104204
0.015482
0.00717146
-0.0194616
-0.0428045
-0.0244733
-0.0375662
-0.0599645
-0.0583083
-0.0742844
-0.090366
-0.0751974
-0.0739861
-0.0790801
-0.0627889
-0.0796572
-0.0663594
-0.073939
-0.0719151
-0.0493298
-0.0561549
-0.0378966
-0.0649165
-0.0530499
-0.0520043
-0.0937138
-0.062615
-0.0678681
-0.0675698
-0.0569388
-0.0383613
-0.0633966
-0.0727715
-0.0556735
-0.046218
-0.0538817
-0.0470422
-0.0496582
-0.0565182
-0.055012
-0.044303
-0.0493312
-0.0603344
-0.0252231
-0.0735525
-0.0536625
-0.0571231
-0.0556499
-0.0397814
-0.0399992
-0.0490598
-0.0523205
-0.0685121
-0.0772664
-0.0624513
-0.0484364
-0.0687397
-0.0588426
-0.0538298
-0.0581223
-0.0658619
-0.0502586
-0.0554144
-0.073391
-0.0722267
-0.075539
-0.0687464
-0.0619774
-0.0789401
-0.0699628
-0.0656138
-0.0561518
-0.0693683
-0.0544115
-0.0574331
-0.0612127
-0.0434725
-0.0814565
-0.0737097
-0.0657171
-0.0794699
-0.054685
-0.0890941
-0.0537608
-0.0649148
-0.0925832
-0.0648692
-0.0670958
-0.0623156
-0.0540631
-0.0528133
-0.0401161
-0.080323
-0.0852989
-0.0802204
-0.0841869
-0.0653751
-0.0586804
-0.0596207
-0.0684696
-0.068994
-0.0618113
-0.0389562
-0.0309432
-0.01174
-0.0124606
-0.0206744
0.00982214
0.0109314
0.0281448
0.0203505
0.0128488
0.0266233
0.00414555
0.0272746
0.0233779
-0.0183474
-0.0676118
-0.0592675
-0.0622078
-0.0582752
-0.0633479
-0.0419781
-0.0312325
-0.0783097
-0.0648808
-0.0673235
-0.0452366
-0.078407
-0.0799783
-0.0736075
-0.0684322
-0.0514543
-0.0787303
-0.093068
-0.0874419
-0.0858463
-0.0717234
-0.0840459
-0.0813698
-0.0774001
-0.0718121
-0.0652374
-0.0822605
-0.0656264
-0.071383
-0.102508
-0.18926
-0.233428
-0.252579
-0.317089
-0.344943
-0.244956
-0.119413
0.0850786
0.153333
0.223193
0.299036
0.249644
0.217643
0.209424
0.193552
0.199164
0.209682
0.223771
0.21392
0.187813
0.126985
0.117579
0.0838725
0.0833272
0.0851423
0.0823345
0.101107
0.086823
0.0876152
0.0735136
0.114183
0.100318
0.0747658
0.0898913
0.126939
0.149471
0.0860563
0.0965592
0.10927
0.113661
0.100154
0.10408
0.13426
0.133034
0.131654
0.1349
0.128241
0.156034
0.150393
0.153995
0.153631
0.170375
0.166806
0.157445
0.158806
0.163341
0.171374
0.18951
0.170274
0.15621
0.211989
0.205085
0.164073
0.173917
0.178341
0.184713
0.176409
0.172264
0.159436
0.166452
0.171495
0.151102
0.152989
0.138955
0.121708
0.124359
0.111024
0.0821223
0.0695168
0.0682601
0.0534049
0.0310809
-0.0225602
0.00306727
-0.0326598
-0.0421828
-0.0428456
-0.0282474
-0.0373756
-0.0819718
-0.0644457
-0.0888156
-0.0849411
-0.0797972
-0.0835574
-0.0892028
-0.0788949
-0.0649457
-0.0903343
-0.0942611
-0.081259
-0.0750233
-0.0703622
-0.0631392
-0.0630569
-0.0584352
-0.0872049
-0.0674262
-0.0523024
-0.0717321
-0.0745237
-0.0674856
-0.0353089
-0.0519355
-0.0472982
-0.0664202
-0.0907488
-0.0530838
-0.0611973
-0.0696891
-0.043893
-0.0509212
-0.0449431
-0.0573767
-0.0849969
-0.0656926
-0.0676931
-0.0988999
-0.0657322
-0.0593185
-0.0586423
-0.0429468
-0.0581105
-0.0674818
-0.0656936
-0.0545821
-0.065435
-0.0794969
-0.0738403
-0.0673213
-0.0684259
-0.0799833
-0.0530476
-0.0479203
-0.0693176
-0.042201
-0.0444542
-0.0886212
-0.106863
-0.0879204
-0.0887733
-0.0844851
-0.0941689
-0.0979431
-0.0373384
-0.0481444
-0.0919782
-0.0766271
-0.102183
-0.0746213
-0.0672945
-0.0857812
-0.0798242
-0.0686733
-0.0661028
-0.0713932
-0.0707085
-0.0624759
-0.0743597
-0.0800157
-0.0786449
-0.0646218
-0.0652908
-0.067227
-0.0796315
-0.0632337
-0.0904227
-0.0730628
-0.0731978
-0.0580351
-0.0852955
-0.0641595
-0.067678
-0.0911556
-0.073333
-0.0650049
-0.065745
-0.0649111
-0.0580833
-0.070708
-0.0765313
-0.0671974
-0.058561
-0.0707455
-0.0742293
-0.0701643
-0.043594
-0.0474181
-0.0169791
-0.0589834
-0.0491321
-0.05706
-0.0733461
-0.0685233
-0.0668805
-0.0735681
-0.0547472
-0.0663557
-0.0322755
-0.0348763
0.00840837
-0.00178513
-0.0034033
0.00690374
-0.0279322
0.0217048
0.0287785
0.0396528
0.0331822
0.0398801
0.0420619
0.0267637
0.00186023
-0.0312037
-0.0312224
-0.060557
-0.0760461
-0.0308335
-0.044032
-0.042102
-0.0544093
-0.0500161
-0.047434
-0.0670114
-0.0665414
-0.0814861
-0.0732735
-0.0660612
-0.0740897
-0.0703816
-0.0427814
-0.0940233
-0.0889061
-0.0952077
-0.0993367
-0.0571092
-0.0523935
-0.094191
-0.0864282
-0.0763345
-0.0703827
-0.0924027
-0.135035
-0.201748
-0.25022
-0.263547
-0.285106
-0.243379
-0.0829442
0.115251
0.240346
0.262858
0.379935
0.328751
0.244496
0.200769
0.183971
0.200552
0.217655
0.217208
0.204214
0.20675
0.132956
0.0925656
0.0958192
0.0813892
0.0695184
0.0969
0.0851326
0.0832648
0.0843138
0.0831724
0.105333
0.0944534
0.0696806
0.094106
0.0937486
0.101131
0.101354
0.0920834
0.103966
0.107325
0.101105
0.107654
0.126571
0.147154
0.132981
0.141028
0.133097
0.148181
0.138924
0.125863
0.16883
0.170555
0.138863
0.170299
0.170049
0.186555
0.161893
0.145449
0.178417
0.205857
0.201227
0.158795
0.202733
0.179437
0.216535
0.201834
0.178083
0.186654
0.178437
0.17718
0.164405
0.157677
0.154124
0.185473
0.165928
0.140935
0.14939
0.103992
0.114626
0.103002
0.0655685
0.0741543
0.0340553
0.0328033
0.00852929
-0.0105601
-0.0240815
-0.045832
-0.0280181
-0.0533366
-0.0403188
-0.00939448
-0.0298522
-0.0319296
-0.0605558
-0.0195758
-0.0696883
-0.0620921
-0.0570356
-0.0489667
-0.0451117
-0.0530896
-0.0438648
-0.0354073
-0.033393
-0.0337757
-0.0656025
-0.0382915
-0.0441272
-0.0327376
-0.052399
-0.0552169
-0.0415375
-0.0523436
-0.0539777
-0.0307986
-0.0577817
-0.0346991
-0.0353013
-0.00714345
-0.0107371
-0.0491834
-0.0679815
-0.0592137
-0.0551376
-0.0379099
-0.0542433
-0.0435027
-0.0643813
-0.0391679
-0.0292192
-0.0416729
-0.0371547
-0.0409895
-0.0334005
-0.0686002
-0.0463203
-0.0308626
-0.026069
-0.0649699
-0.0701657
-0.0370879
-0.033442
-0.0666747
-0.0530945
-0.0348804
-0.0527194
-0.0738985
-0.070091
-0.0468306
-0.0394868
-0.0530687
-0.0543387
-0.0684714
-0.0442756
-0.0429792
-0.0649663
-0.0585928
-0.07188
-0.0676433
-0.0544345
-0.0542469
-0.0584602
-0.0453589
-0.0611869
-0.0689944
-0.0607805
-0.0657108
-0.0688352
-0.0580549
-0.0397985
-0.0474887
-0.0622218
-0.0603843
-0.0453968
-0.0708554
-0.0852661
-0.0648612
-0.0529043
-0.0492793
-0.0453921
-0.0782047
-0.072479
-0.0702892
-0.0587817
-0.0574628
-0.0632074
-0.0949677
-0.0555769
-0.0570518
-0.0691648
-0.0512191
-0.0571559
-0.0306464
-0.0612192
-0.0557728
-0.0882786
-0.0677781
-0.0702845
-0.0733405
-0.0464622
-0.0384475
-0.0677607
-0.0294649
-0.0475044
-0.0713191
-0.0417216
-0.0799683
-0.0749854
-0.0717011
-0.0815626
-0.0452106
-0.0762803
-0.0537328
-0.0679783
-0.0723479
-0.0680246
-0.0735973
-0.0754608
-0.0662357
-0.0728389
-0.0653665
-0.0669162
-0.0419952
-0.0853751
-0.0751729
-0.0824304
-0.0801824
-0.0810865
-0.0622759
-0.0644524
-0.0734028
-0.0575168
-0.0586624
-0.0267361
0.00538169
-0.0124315
0.0109561
-0.0216937
-0.00166724
0.0273617
0.0434747
0.0602726
0.0208762
0.0218864
0.0303432
0.035221
0.0254976
-0.00276251
-0.019927
-0.0587515
-0.0464497
-0.0484732
-0.068379
-0.0578393
-0.0579671
-0.0588221
-0.0678674
-0.0659466
-0.0605871
-0.0480894
-0.073002
-0.0959513
-0.0775057
-0.0789281
-0.0699263
-0.0770952
-0.0729502
-0.076099
-0.0727416
-0.0734063
-0.0691397
-0.072935
-0.0757434
-0.0689394
-0.0494105
-0.0461485
-0.103092
-0.178633
-0.285531
-0.239725
-0.301837
-0.273281
-0.173777
-0.0524692
0.150669
0.1664
0.281803
0.297495
0.246487
0.197143
0.187878
0.182626
0.199625
0.206355
0.221373
0.195206
0.168709
0.12023
0.0922693
0.0689178
0.0768013
0.0840692
0.0841088
0.09805
0.0926975
0.090612
0.0966101
0.0882181
0.111853
0.111982
0.0787423
0.0951498
0.126335
0.115703
0.0759362
0.132236
0.124652
0.121405
0.177486
0.162593
0.136314
0.126061
0.128092
0.131195
0.137316
0.1462
0.149315
0.162173
0.166569
0.154056
0.169115
0.159591
0.170579
0.169469
0.19084
0.217243
0.178954
0.168081
0.196643
0.218782
0.214926
0.209505
0.221477
0.190887
0.202815
0.198248
0.166465
0.216889
0.219074
0.160778
0.163174
0.181882
0.20242
0.136206
0.123499
0.133711
0.11704
0.0771003
0.0329466
0.088897
0.0472085
0.00209674
-0.0243646
-0.0279408
-0.0338995
-0.0461563
-0.0689023
-0.0459348
-0.0454951
-0.0501122
-0.0615177
-0.0687948
-0.0824114
-0.0797782
-0.0588993
-0.0607994
-0.0873648
-0.0767995
-0.0540124
-0.0543919
-0.0589446
-0.0464668
-0.0539681
-0.0702569
-0.06685
-0.0610323
-0.01379
-0.0376342
-0.0686819
-0.0726781
-0.0491781
-0.0550572
-0.0465141
-0.04028
-0.0310376
-0.044547
-0.0643672
-0.0375304
-0.0398443
-0.0538828
-0.0603121
-0.0527749
-0.0354941
-0.0642926
-0.097442
-0.0486636
-0.0320969
-0.0631193
-0.0436707
-0.045969
-0.0396917
-0.0692903
-0.0653615
-0.0498313
-0.0423219
-0.061531
-0.0515747
-0.0481496
-0.0405742
-0.0385568
-0.0574055
-0.037971
-0.0632792
-0.0307658
-0.0217394
-0.0494521
-0.0645657
-0.0587257
-0.0332554
-0.0637745
-0.0618044
-0.0174873
-0.0523496
-0.0489176
-0.0418302
-0.0576287
-0.0586645
-0.0620303
-0.0796681
-0.0538333
-0.0590027
-0.045277
-0.0617827
-0.0673761
-0.0647502
-0.0590311
-0.0704055
-0.0515276
-0.065853
-0.033507
-0.041879
-0.0362736
-0.0372828
-0.0629205
-0.0769877
-0.0696245
-0.0489697
-0.0279522
-0.0754242
-0.0412228
-0.046462
-0.0416566
-0.0515563
-0.0562026
-0.0379552
-0.0293329
-0.0455902
-0.0433207
-0.0671481
-0.0689547
-0.0532205
-0.067921
-0.0543008
-0.0511477
-0.0460987
-0.0591827
-0.0388756
-0.0566195
-0.059048
-0.0471517
-0.0491585
-0.0365824
-0.0774602
-0.0508934
-0.0349272
-0.0599733
-0.0871843
-0.0540882
-0.0426161
-0.0471172
-0.0695834
-0.0549281
-0.0676441
-0.0841722
-0.070627
-0.0668267
-0.0366959
-0.0352777
-0.0178034
-0.0384487
-0.0475606
-0.0465156
-0.0561081
-0.0564579
-0.0433601
-0.0536153
-0.0304642
-0.0674309
-0.0603605
-0.0492596
-0.0686968
-0.0594299
-0.0614147
-0.0506624
-0.0410732
-0.0306615
-0.0184043
0.0258218
-0.00549141
-0.0108349
-0.0144119
0.0177641
0.0193261
0.0140446
0.030392
0.00216927
0.0161328
-9.98347e-005
0.00677582
0.00975215
-0.0406613
-0.0782784
-0.0576619
-0.0664222
-0.071649
-0.0337069
-0.00234306
-0.0794682
-0.0849861
-0.0691283
-0.0896285
-0.07249
-0.0654499
-0.0801916
-0.0718606
-0.083507
-0.0857101
-0.075477
-0.0790003
-0.0729334
-0.0663161
-0.0798686
-0.0595441
-0.0895879
-0.093502
-0.0919883
-0.0947168
-0.0935061
-0.163119
-0.224875
-0.261602
-0.308996
-0.330073
-0.267532
-0.15707
0.0119213
0.115263
0.187368
0.294616
0.247568
0.209617
0.19948
0.187552
0.186948
0.180043
0.226086
0.194427
0.186321
0.150064
0.111051
0.102501
0.12856
0.116062
0.0610119
0.0852287
0.0514905
0.0619144
0.0870456
0.0739513
0.091545
0.0878678
0.101342
0.10037
0.117059
0.0999729
0.1165
0.134853
0.129195
0.13142
0.103366
0.126181
0.133469
0.136749
0.16119
0.149648
0.148685
0.174036
0.151119
0.156584
0.152873
0.176885
0.175493
0.177385
0.18268
0.167007
0.178631
0.181724
0.169663
0.180719
0.19411
0.202752
0.200551
0.201942
0.211853
0.187288
0.229142
0.213832
0.181289
0.18523
0.193569
0.194735
0.167463
0.187648
0.171998
0.161114
0.140367
0.131163
0.104076
0.0884401
0.0820489
0.0639457
0.0427747
0.0224713
-0.000380438
-0.00246353
-0.0145039
-0.0398599
-0.041268
-0.0613563
-0.059261
-0.0579944
-0.0749139
-0.0752436
-0.0793923
-0.0771777
-0.0895046
-0.0675413
-0.071563
-0.0603872
-0.0710607
-0.0730541
-0.068905
-0.0593303
-0.0502471
-0.0627031
-0.0485712
-0.0611742
-0.0637622
-0.0519808
-0.0708887
-0.0578723
-0.0474241
-0.0500702
-0.0476561
-0.0494979
-0.041834
-0.0296831
-0.0424104
-0.0293472
-0.0513905
-0.0352855
-0.0329898
-0.0479667
-0.0341316
-0.0384368
-0.0340529
-0.043373
-0.0349583
-0.0391182
-0.0494932
-0.0399538
-0.0438243
-0.0575281
-0.0424431
-0.0545163
-0.0387884
-0.0452642
-0.0428496
-0.0442921
-0.0514689
-0.0593782
-0.0495983
-0.039995
-0.0477897
-0.0383684
-0.050614
-0.0257407
-0.0370486
-0.0701235
-0.049258
-0.0502839
-0.0674726
-0.0380869
-0.0395275
-0.0431777
-0.0632739
-0.0477685
-0.0491516
-0.0470313
-0.04015
-0.0555045
-0.0414788
-0.0552854
-0.0678788
-0.0392756
-0.0647774
-0.0483697
-0.06252
-0.0593032
-0.0556889
-0.0479928
-0.0582489
-0.0557997
-0.0484542
-0.051552
-0.0541137
-0.0619452
-0.0540356
-0.0544209
-0.0580234
-0.0411569
-0.0682888
-0.0521167
-0.0633349
-0.05329
-0.0430959
-0.0640828
-0.0489348
-0.0653091
-0.0535496
-0.0549718
-0.0601509
-0.0573091
-0.0573884
-0.0580159
-0.0418903
-0.0523556
-0.0590565
-0.0555998
-0.0578832
-0.0519408
-0.0575668
-0.0579901
-0.0599233
-0.0663359
-0.0663003
-0.0647186
-0.0488676
-0.0602565
-0.0505514
-0.0812003
-0.067812
-0.0624737
-0.0504325
-0.0435918
-0.0598318
-0.060928
-0.0797166
-0.0573505
-0.0604711
-0.0732607
-0.0560637
-0.0684993
-0.0559494
-0.056307
-0.0676723
-0.0612182
-0.0676279
-0.0550841
-0.0431521
-0.0302239
-0.0264611
-0.0240198
-0.0126574
0.00596203
-0.00304365
0.0291543
0.0304599
0.0415155
0.0219933
0.015608
0.0134978
-0.00601317
0.00568614
-0.0230036
-0.061437
-0.0616388
-0.0594352
-0.0729125
-0.0638956
-0.0483221
-0.057437
-0.03083
-0.0472172
-0.070636
-0.0700881
-0.0759795
-0.0761255
-0.0710001
-0.0641059
-0.0588585
-0.0725134
-0.0634751
-0.0721624
-0.0830875
-0.0815999
-0.0761793
-0.0619069
-0.0815719
-0.0705119
-0.0824115
-0.0971411
-0.0834922
-0.126109
-0.201197
-0.247323
-0.262581
-0.272206
-0.22049
-0.0888675
0.105764
0.227278
0.246318
0.381668
0.319441
0.263187
0.215643
0.186409
0.188102
0.189227
0.210686
0.226919
0.199559
0.136404
0.105376
0.0855888
0.0835466
0.0849716
0.0976105
0.0789024
0.083759
0.0931803
0.076396
0.0958277
0.0861317
0.100436
0.102784
0.0945854
0.126906
0.115194
0.0917999
0.0902988
0.0993551
0.11284
0.111272
0.122987
0.118688
0.128514
0.128428
0.112381
0.119244
0.120119
0.123971
0.134495
0.14752
0.135722
0.145643
0.153558
0.138876
0.143738
0.159628
0.173422
0.172221
0.164326
0.186908
0.178129
0.188642
0.196895
0.190688
0.189016
0.185326
0.190391
0.187573
0.171841
0.178969
0.172321
0.164841
0.151225
0.151587
0.138691
0.125245
0.116138
0.111853
0.081801
0.0430427
0.0391076
0.0274825
0.0156136
-0.00763627
-0.0281951
-0.0330913
-0.0449573
-0.0464392
-0.064836
-0.0591175
-0.0533039
-0.0630531
-0.0782755
-0.0689278
-0.0598343
-0.0514597
-0.0616503
-0.0578427
-0.0580065
-0.0805068
-0.0626248
-0.0755928
-0.0649057
-0.0640691
-0.0613668
-0.0399314
-0.0637748
-0.0523405
-0.0601536
-0.0495278
-0.0474029
-0.0630877
-0.0620176
-0.0572635
-0.0601396
-0.0511601
-0.0614599
-0.0517547
-0.0553547
-0.0503748
-0.0693718
-0.0558317
-0.0703377
-0.0603282
-0.0493584
-0.0551975
-0.0481887
-0.0596365
-0.0541367
-0.0461867
-0.060753
-0.0435051
-0.0644816
-0.0436687
-0.0439618
-0.0572332
-0.0508283
-0.0567202
-0.0607673
-0.0767369
-0.059827
-0.055184
-0.0541564
-0.0423063
-0.0606317
-0.0577502
-0.0576594
-0.0786595
-0.0570602
-0.0505635
-0.054133
-0.0534262
-0.0692546
-0.0689098
-0.0674612
-0.0690648
-0.0685658
-0.0508364
-0.0366768
-0.0723388
-0.092812
-0.0812972
-0.062249
-0.0639951
-0.0590798
-0.0675865
-0.0768646
-0.0645717
-0.0567514
-0.0494686
-0.0663223
-0.0694505
-0.0569515
-0.0698368
-0.0593404
-0.0660384
-0.0631815
-0.0674416
-0.0751953
-0.0666046
-0.0567121
-0.0651464
-0.0511327
-0.0587722
-0.0561289
-0.0603509
-0.0585051
-0.0580941
-0.0634318
-0.0687531
-0.0599639
-0.0724075
-0.0664443
-0.0771263
-0.0653109
-0.0634729
-0.0689796
-0.0543494
-0.0498266
-0.0636255
-0.0798338
-0.0633747
-0.071909
-0.0514254
-0.0635261
-0.060999
-0.0647235
-0.0723325
-0.0549757
-0.0798144
-0.0677643
-0.0570656
-0.0568018
-0.0475587
-0.0624123
-0.0200068
-0.0203817
-0.0144526
-0.0193089
-0.00924429
0.00547915
0.00936526
0.0265447
0.0396846
0.0238084
0.0167896
0.00808439
0.00105636
0.0164351
-0.0100939
-0.0359271
-0.0552655
-0.0671291
-0.0671884
-0.0418218
-0.0574103
-0.0526094
-0.063262
-0.0675004
-0.0793936
-0.084394
-0.0857063
-0.0863383
-0.0726695
-0.0629091
-0.0707906
-0.0684703
-0.0614599
-0.0678604
-0.0653725
-0.0744243
-0.0677195
-0.077637
-0.0752775
-0.0689155
-0.0831697
-0.0702639
-0.0958972
-0.10813
-0.177681
-0.262976
-0.271922
-0.302056
-0.286343
-0.182678
-0.0467567
0.168449
0.194655
0.291346
0.316481
0.258572
0.21637
0.194753
0.182441
0.182172
0.191951
0.2205
0.202923
0.182538
0.133952
0.104369
0.0683196
0.0776296
0.0877706
0.089719
0.100654
0.0936846
0.0927831
0.0890462
0.0994058
0.105923
0.091874
0.0955418
0.0952485
0.10879
0.117087
0.103998
0.11607
0.115386
0.108694
0.123002
0.124159
0.123613
0.127519
0.137907
0.142486
0.130425
0.146351
0.143722
0.149336
0.15238
0.169785
0.166478
0.177113
0.166822
0.175466
0.175259
0.179209
0.189847
0.199302
0.189551
0.202743
0.191644
0.200084
0.204773
0.191482
0.188164
0.199905
0.192991
0.18022
0.179049
0.185404
0.158139
0.165747
0.160617
0.136111
0.131367
0.105372
0.0935096
0.0870673
0.0585493
0.0438833
0.0216401
0.00645405
-0.00936255
-0.016763
-0.0371919
-0.0440263
-0.0632631
-0.0576038
-0.0549265
-0.0790042
-0.0526394
-0.0744899
-0.0575311
-0.0660366
-0.0657538
-0.0802232
-0.0840513
-0.0709966
-0.0581131
-0.0595744
-0.0418689
-0.0628857
-0.0549003
-0.0522117
-0.0636147
-0.0465804
-0.0628082
-0.0570758
-0.0773925
-0.0531066
-0.0374614
-0.0686658
-0.0553567
-0.0576913
-0.0632044
-0.0556225
-0.0594041
-0.0505168
-0.0509767
-0.060104
-0.0793453
-0.0480003
-0.0552686
-0.053079
-0.0479552
-0.0598738
-0.0574831
-0.0474486
-0.0498683
-0.048785
-0.0483492
-0.0429267
-0.0559466
-0.0542203
-0.0626539
-0.0729212
-0.07136
-0.0696211
-0.0479618
-0.0445658
-0.0478065
-0.0479694
-0.0554126
-0.0639057
-0.0744713
-0.0581055
-0.0557796
-0.0531935
-0.0709633
-0.0584666
-0.0560036
-0.060881
-0.0588713
-0.0469259
-0.0634429
-0.0706646
-0.0675266
-0.0554146
-0.0725075
-0.0572803
-0.0522624
-0.058902
-0.0578381
-0.0756043
-0.0558583
-0.055787
-0.0581367
-0.0592177
-0.0630995
-0.0580411
-0.0673143
-0.051428
-0.0605798
-0.0618015
-0.0446838
-0.0599253
-0.0689806
-0.0550246
-0.0635671
-0.0485504
-0.0586084
-0.0710269
-0.0647066
-0.060292
-0.0664386
-0.0753199
-0.0677234
-0.0587542
-0.0739082
-0.0652112
-0.0580303
-0.0621605
-0.0652992
-0.0604411
-0.0536971
-0.0585831
-0.0584555
-0.0655712
-0.0518847
-0.078687
-0.070881
-0.0477129
-0.0636904
-0.0532474
-0.0731078
-0.0648478
-0.0529566
-0.0597932
-0.0635864
-0.0608091
-0.0613158
-0.0612501
-0.0611059
-0.038978
-0.0395944
-0.00808231
-0.0226675
-0.0188897
-0.00756117
-0.00232664
0.0221098
0.0258746
0.0326888
0.0224694
0.006978
0.0223974
0.0174979
0.00560147
-0.00201016
-0.036702
-0.054107
-0.0577496
-0.0772481
-0.0720742
-0.0482814
-0.0522401
-0.0528617
-0.0671176
-0.0639834
-0.0626975
-0.0707027
-0.0746443
-0.0690602
-0.0789166
-0.072058
-0.0844257
-0.0659527
-0.0830701
-0.0820473
-0.0634731
-0.0722673
-0.0555838
-0.0711875
-0.0605996
-0.0680455
-0.0971148
-0.0993823
-0.128381
-0.201695
-0.258937
-0.299942
-0.323068
-0.298415
-0.202374
-0.0412398
0.150302
0.18425
0.283179
0.277756
0.231894
0.216004
0.192298
0.181175
0.188013
0.194098
0.232635
0.192838
0.157401
0.116121
0.0952982
0.0784909
0.0803079
0.0951461
0.084043
0.0851237
0.0961811
0.0926858
0.096679
0.0939217
0.0974899
0.0956405
0.0880482
0.106118
0.105787
0.106278
0.113708
0.105401
0.108631
0.119714
0.133375
0.127272
0.131778
0.136336
0.14576
0.145684
0.141172
0.14519
0.146434
0.162049
0.164088
0.169222
0.17261
0.162058
0.174675
0.173521
0.171296
0.190036
0.190361
0.199766
0.182885
0.204154
0.209405
0.191537
0.204493
0.20014
0.202652
0.197624
0.18763
0.196015
0.182357
0.174628
0.163511
0.147711
0.145554
0.142603
0.134937
0.118916
0.103794
0.0812404
0.0689381
0.035476
0.0177152
0.0109426
-0.0157167
-0.0285543
-0.0309229
-0.0322876
-0.0408355
-0.0641798
-0.0658105
-0.0613219
-0.0701989
-0.0675622
-0.0760139
-0.0576691
-0.0667679
-0.0682605
-0.0653636
-0.0750543
-0.0749097
-0.0772822
-0.0616567
-0.0552988
-0.0631781
-0.063428
-0.0439164
-0.0575378
-0.0464647
-0.0513036
-0.0560163
-0.0555976
-0.0500873
-0.0530379
-0.0633527
-0.0584796
-0.0642762
-0.0544422
-0.0681806
-0.0473102
-0.053618
-0.0458345
-0.0427533
-0.0551178
-0.0481812
-0.0552294
-0.048118
-0.0560823
-0.0630349
-0.0520299
-0.0531634
-0.0399683
-0.0474957
-0.0611503
-0.0429499
-0.0582736
-0.0391884
-0.0489885
-0.0566356
-0.0620616
-0.0734948
-0.0536175
-0.0594963
-0.0536006
-0.0555038
-0.0668081
-0.064134
-0.0720005
-0.0671567
-0.0383267
-0.0550933
-0.0576035
-0.0495535
-0.079501
-0.0756621
-0.0742715
-0.0657638
-0.0569668
-0.0587736
-0.0638193
-0.0564343
-0.075448
-0.0680965
-0.0720025
-0.0698905
-0.053577
-0.0715439
-0.0568779
-0.05529
-0.0590511
-0.0507451
-0.0599036
-0.0641369
-0.0706556
-0.0704905
-0.0620235
-0.0583704
-0.0756968
-0.0691557
-0.0714266
-0.0625181
-0.047817
-0.0683563
-0.061763
-0.0630466
-0.0673966
-0.0771827
-0.0829104
-0.0723635
-0.0614333
-0.0698316
-0.0605227
-0.0692311
-0.0698545
-0.0716995
-0.0669917
-0.0527749
-0.0650798
-0.0541442
-0.036008
-0.0690852
-0.0639926
-0.0643206
-0.0650247
-0.0633204
-0.0723082
-0.0733058
-0.0738216
-0.0633406
-0.0516897
-0.0658228
-0.0567897
-0.0745014
-0.0679513
-0.0741005
-0.0577499
-0.0324858
-0.0262252
-0.0147416
-0.0126538
-0.0153252
-0.0135175
-0.00485999
0.023578
0.0158086
0.0472988
0.0178407
0.00851253
0.0321487
0.0444517
-0.0278758
-0.0375926
-0.0341882
-0.0547967
-0.0655273
-0.0770149
-0.0480056
-0.0308752
-0.0561761
-0.046243
-0.0632372
-0.0704238
-0.0815258
-0.0858505
-0.0814586
-0.0694757
-0.0630643
-0.0703597
-0.0918041
-0.0880553
-0.0847073
-0.0739817
-0.0713772
-0.0699264
-0.0699247
-0.083013
-0.0714147
-0.0766804
-0.0970373
-0.0858311
-0.196397
-0.248626
-0.280478
-0.295943
-0.304319
-0.186636
-0.054719
0.198064
0.248109
0.321153
0.384836
0.277171
0.260082
0.199568
0.173466
0.189824
0.200999
0.221855
0.20182
0.163325
0.141183
0.0887807
0.0845629
0.0861659
0.107123
0.115135
0.0782641
0.0856562
0.0853124
0.0780605
0.0950645
0.0876244
0.061033
0.0870523
0.121088
0.110158
0.0839622
0.0924769
0.0971893
0.112331
0.0926366
0.12035
0.110935
0.115567
0.130637
0.116578
0.125006
0.160426
0.126006
0.120911
0.13407
0.132088
0.142992
0.141347
0.154035
0.152252
0.206754
0.177544
0.206387
0.172927
0.151217
0.178172
0.183172
0.191098
0.180511
0.181936
0.164364
0.173834
0.192349
0.15578
0.174589
0.18449
0.158506
0.152933
0.158533
0.141272
0.112832
0.0992279
0.0996551
0.0826906
0.0660586
0.0444792
0.0490619
0.0214578
0.00805207
-0.0191307
-0.0253674
-0.0377742
-0.00771288
-0.0755976
-0.0784036
-0.0666119
-0.049086
-0.083816
-0.0734766
-0.0658957
-0.071064
-0.0647106
-0.0739923
-0.0647394
-0.0515525
-0.0716075
-0.0695947
-0.0652608
-0.0674808
-0.0574581
-0.0641839
-0.0675771
-0.0565751
-0.0558663
-0.0777889
-0.0547451
-0.0694367
-0.069822
-0.0470407
-0.0367288
-0.0462438
-0.0610226
-0.0680086
-0.0621289
-0.0553403
-0.0305962
-0.0641396
-0.050049
-0.0453251
-0.0328811
-0.0258053
-0.0525685
-0.0507738
-0.0106737
-0.0265286
-0.0699865
-0.0792498
-0.0429842
-0.0460433
-0.0714418
-0.0623914
-0.0600911
-0.0513913
-0.0514878
-0.0719437
-0.0710897
-0.0638526
-0.0547933
-0.0390185
-0.0802069
-0.0902672
-0.0705292
-0.0699635
-0.052467
-0.0583411
-0.0721303
-0.0401471
-0.0217692
-0.0597629
-0.0624616
-0.0748318
-0.0516293
-0.0669593
-0.0298009
-0.0556844
-0.107576
-0.0721455
-0.0514541
-0.0652621
-0.067919
-0.0736311
-0.0538373
-0.0591148
-0.065072
-0.0502226
-0.0750166
-0.00369393
-0.0709168
-0.0851922
-0.0756424
-0.0478103
-0.071672
-0.105783
-0.0685845
-0.0881246
-0.0990998
-0.0710292
-0.0706878
-0.0668796
-0.0775918
-0.0612383
-0.0679581
-0.0514507
-0.0348511
-0.0719805
-0.0613577
-0.0436703
-0.0990886
-0.0652989
-0.068141
-0.0634744
-0.042303
-0.0487439
-0.0461805
-0.0419284
-0.0676466
-0.0850586
-0.0754168
-0.0872359
-0.0571063
-0.0329069
-0.0271762
-0.0183008
-0.000478699
-0.0195746
-0.00720734
0.0182888
0.0186234
0.042271
0.0287824
0.0243333
-0.013914
0.0312127
0.0341867
-0.0297023
-0.028252
-0.0620794
-0.0496987
-0.0706195
-0.0808447
-0.0438254
-0.0552324
-0.0623901
-0.0593984
-0.0775251
-0.0650985
-0.0763434
-0.0730373
-0.0191451
-0.100548
-0.0990572
-0.0806437
-0.0657489
-0.0717151
-0.0737651
-0.0576414
-0.0601558
-0.0547537
-0.0833646
-0.0800409
-0.0644573
-0.0577592
-0.0963048
-0.126358
-0.171363
-0.227305
-0.27037
-0.279481
-0.285659
-0.170487
-0.033961
0.131975
0.184304
0.252085
0.35823
0.283798
0.240646
0.201228
0.175193
0.218332
0.196212
0.224399
0.207852
0.180162
0.134407
0.0953134
0.0846955
0.103605
0.103087
0.0923264
0.0719634
0.0834293
0.0753557
0.0818542
0.108156
0.0654348
0.086793
0.0809752
0.0852055
0.118842
0.114909
0.102978
0.10842
0.110883
0.104232
0.0905257
0.114242
0.122825
0.125772
0.130054
0.136185
0.140784
0.15935
0.149754
0.14813
0.148918
0.14379
0.15911
0.123735
0.138271
0.167709
0.15847
0.160232
0.170549
0.184257
0.177551
0.169955
0.184835
0.183252
0.181997
0.18929
0.166288
0.186121
0.185873
0.174299
0.201801
0.150571
0.154248
0.158405
0.148031
0.141025
0.115882
0.13636
0.0648904
0.100003
0.0587573
0.0363357
0.016726
-0.00662512
-0.0279506
-0.0461539
-0.0420614
-0.0514543
-0.0259718
-0.0559688
-0.0700244
-0.0604115
-0.0719662
-0.0809025
-0.073061
-0.0700171
-0.0657476
-0.085717
-0.0663835
-0.0722804
-0.075227
-0.0341255
-0.0825933
-0.0692435
-0.0566708
-0.0638492
-0.0586082
-0.0644772
-0.0513106
-0.0681845
-0.0680875
-0.0554171
-0.0392412
-0.0312692
-0.0577919
-0.08324
-0.0477727
-0.0727583
-0.0648242
-0.052367
-0.0514168
-0.0698757
-0.0541739
-0.0549066
-0.0656819
-0.0555822
-0.0549274
-0.0445383
-0.0603385
-0.0446472
-0.0478388
-0.0490684
-0.0669072
-0.086029
-0.0310717
-0.0340986
-0.0814585
-0.0595206
-0.0599513
-0.059689
-0.0703104
-0.0723341
-0.0584383
-0.0698973
-0.072415
-0.0575937
-0.060787
-0.050678
-0.0628454
-0.0601528
-0.066876
-0.0379077
-0.0583702
-0.0707617
-0.0757571
-0.0660928
-0.0807859
-0.066659
-0.0766367
-0.0810312
-0.0591445
-0.0625902
-0.0807532
-0.065469
-0.070783
-0.0388517
-0.0783758
-0.0809013
-0.043342
-0.0597832
-0.0810337
-0.0662871
-0.0512925
-0.0872138
-0.0959389
-0.0876707
-0.071255
-0.0639148
-0.066243
-0.0823028
-0.0726062
-0.0802515
-0.0769582
-0.0604939
-0.0736639
-0.0716322
-0.0623458
-0.0716728
-0.0711038
-0.0759213
-0.0815307
-0.0634304
-0.0901905
-0.0662785
-0.0730648
-0.070093
-0.077417
-0.0766762
-0.0741934
-0.072044
-0.0491122
-0.0691845
-0.0642423
-0.0620826
-0.0369098
-0.011362
-0.0255355
-0.0369999
-0.00821223
0.0112771
0.0183647
0.0217201
0.0240164
0.0172366
0.00536378
-0.0139114
0.000805146
0.0110091
-0.0158103
-0.035903
-0.0552837
-0.0661284
-0.0749008
-0.06743
-0.0365806
-0.0376218
-0.0679998
-0.075903
-0.0908788
-0.0906881
-0.0846952
-0.0645064
-0.0768483
-0.0913567
-0.0906293
-0.0726331
-0.0813628
-0.0784667
-0.066914
-0.0565817
-0.0715038
-0.106544
-0.0786951
-0.0714756
-0.0895547
-0.0753995
-0.0840204
-0.0883803
-0.155109
-0.224889
-0.25344
-0.297439
-0.307108
-0.259739
-0.143706
0.0383174
0.140132
0.196824
0.299175
0.252675
0.225871
0.198043
0.17813
0.178347
0.176339
0.207743
0.207924
0.196685
0.158546
0.0789936
0.061895
0.0711087
0.0730223
0.087098
0.090451
0.0898512
0.0922669
0.0791224
0.103206
0.100947
0.0906696
0.0913085
0.0929812
0.107987
0.0984799
0.105169
0.118135
0.10573
0.127587
0.123009
0.121207
0.13468
0.111441
0.13315
0.141592
0.145681
0.155813
0.156128
0.160805
0.149271
0.14745
0.162414
0.165913
0.164782
0.177083
0.207342
0.176309
0.184748
0.192183
0.19121
0.197389
0.198323
0.203561
0.188176
0.199751
0.200462
0.199316
0.208371
0.180887
0.190806
0.191514
0.168129
0.175107
0.145442
0.148557
0.139545
0.112569
0.110638
0.080952
0.0771978
0.0485701
0.0274559
0.0178389
-0.00047755
-0.0210742
-0.0253851
-0.0453777
-0.0554366
-0.0658121
-0.0720951
-0.062214
-0.0600156
-0.0753668
-0.0560909
-0.0517068
-0.0737919
-0.0795788
-0.0761519
-0.058254
-0.0806455
-0.0550182
-0.0392032
-0.0519564
-0.0624005
-0.0758998
-0.0607244
-0.0567536
-0.0538724
-0.0596565
-0.0533873
-0.0497805
-0.0553153
-0.0561144
-0.047067
-0.0609071
-0.0529942
-0.0529322
-0.0548731
-0.0547368
-0.055382
-0.0541977
-0.0485457
-0.0632979
-0.0518371
-0.0407514
-0.0581712
-0.0460924
-0.0565679
-0.0595349
-0.0549672
-0.0467251
-0.0464465
-0.0537723
-0.045053
-0.0380904
-0.0476739
-0.0514677
-0.0520061
-0.0545464
-0.0461237
-0.0548753
-0.0520288
-0.0443131
-0.0542055
-0.0541821
-0.0472166
-0.0449224
-0.063669
-0.0692426
-0.0504102
-0.0525373
-0.0539149
-0.0581073
-0.0558798
-0.0619258
-0.0677676
-0.0578463
-0.0595184
-0.0611902
-0.0529146
-0.0679429
-0.067556
-0.0578074
-0.0642749
-0.0605065
-0.0560415
-0.0558894
-0.0578847
-0.0502615
-0.0578949
-0.0690599
-0.0716655
-0.0516159
-0.0541829
-0.0712415
-0.0531091
-0.0587769
-0.0538231
-0.0510916
-0.0587555
-0.0492225
-0.0660547
-0.050385
-0.0490295
-0.0675702
-0.0494918
-0.0564233
-0.059128
-0.0629859
-0.0648785
-0.0610246
-0.0647555
-0.0708844
-0.0639546
-0.0548153
-0.0629442
-0.0690331
-0.0665143
-0.0648449
-0.0634689
-0.0764141
-0.0672526
-0.0688197
-0.0555375
-0.0419723
-0.0256235
-0.0174079
-0.0246582
-0.0119834
-0.0174328
-0.00468769
0.0135462
0.0211778
0.042968
0.0340256
0.0250967
0.0214735
0.00685724
0.0215813
-0.0065271
-0.0434394
-0.0537978
-0.0665632
-0.0679406
-0.0650325
-0.0694463
-0.0383881
-0.0580479
-0.0585541
-0.0765607
-0.0720217
-0.0832836
-0.0754437
-0.0750642
-0.0800529
-0.0723447
-0.0737324
-0.0897821
-0.0892901
-0.0823754
-0.0894607
-0.0648538
-0.0530732
-0.096111
-0.0844972
-0.0805294
-0.0757571
-0.0772197
-0.108366
-0.149359
-0.222684
-0.255698
-0.287246
-0.328691
-0.260587
-0.15388
0.0581643
0.162631
0.22759
0.343444
0.275636
0.24273
0.189565
0.162173
0.165706
0.171224
0.210527
0.212931
0.176676
0.13493
0.0937517
0.0686781
0.0610283
0.0804751
0.0884461
0.0872141
0.0927237
0.0683365
0.0834774
0.0825919
0.0959779
0.0907333
0.0766558
0.108526
0.0954559
0.0841808
0.109639
0.107834
0.116628
0.0911473
0.118884
0.114433
0.122779
0.120661
0.114725
0.141303
0.137157
0.130264
0.127446
0.118296
0.144679
0.143882
0.154129
0.154824
0.155892
0.162147
0.157631
0.169252
0.17371
0.179608
0.166868
0.17542
0.177474
0.169958
0.169474
0.179028
0.200403
0.192722
0.172308
0.199365
0.165811
0.143778
0.15291
0.15761
0.145359
0.122361
0.123533
0.104936
0.0867293
0.080356
0.0538122
0.0559531
0.0318266
0.00738657
-0.00383264
-0.0307099
-0.0317277
-0.0403644
-0.0595826
-0.0653665
-0.0681658
-0.0753376
-0.0855838
-0.080334
-0.0873882
-0.0554659
-0.0746732
-0.0657926
-0.0660508
-0.0880891
-0.065589
-0.0635104
-0.0457919
-0.0477894
-0.0867405
-0.0606977
-0.0706983
-0.0583395
-0.0755465
-0.07553
-0.0488556
-0.0641061
-0.0523543
-0.0474195
-0.0455844
-0.0510847
-0.0586605
-0.0597202
-0.0633568
-0.0630071
-0.0555015
-0.067282
-0.0552704
-0.0583749
-0.0519955
-0.0592362
-0.0488825
-0.0608045
-0.0494071
-0.0607046
-0.0574529
-0.0614089
-0.0651304
-0.0373699
-0.0652562
-0.0693428
-0.0468935
-0.0620572
-0.0731126
-0.0617797
-0.0600948
-0.0472768
-0.0624119
-0.0616128
-0.0743906
-0.0618384
-0.0555792
-0.0680297
-0.0616912
-0.0691487
-0.0618051
-0.0539088
-0.0707761
-0.0571503
-0.0640407
-0.0681819
-0.0504068
-0.0805558
-0.0647878
-0.0540268
-0.0421201
-0.062212
-0.0743585
-0.085482
-0.0830232
-0.0716902
-0.065425
-0.0641003
-0.0730669
-0.0790757
-0.0691433
-0.0641903
-0.0666389
-0.0612747
-0.067083
-0.0636523
-0.0857689
-0.0500159
-0.0678519
-0.0628194
-0.0753349
-0.0794523
-0.0702966
-0.0665883
-0.0670863
-0.0432164
-0.0564365
-0.09965
-0.097472
-0.0646867
-0.070105
-0.0607772
-0.0632858
-0.0615174
-0.0624823
-0.0780646
-0.0766774
-0.0801823
-0.0884796
-0.0702996
-0.0741377
-0.068333
-0.0575191
-0.0403331
-0.026933
-0.0412338
-0.0489296
-0.0234917
0.00603326
0.0169151
0.0557575
0.0193355
0.0155987
0.00448756
0.00242277
0.0181667
-0.00541642
-0.0164271
-0.0421625
-0.0384015
-0.0749108
-0.0701903
-0.0556402
-0.0358725
-0.0524229
-0.0414803
-0.0631704
-0.0742226
-0.0906783
-0.089462
-0.04021
-0.0471913
-0.0984254
-0.085989
-0.0785774
-0.0927926
-0.0720735
-0.0703546
-0.0818772
-0.0837387
-0.0792671
-0.0738507
-0.0579759
-0.0763617
-0.0639619
-0.0945404
-0.104488
-0.173446
-0.236608
-0.265172
-0.282304
-0.243714
-0.14075
0.0192508
0.274567
0.261313
0.329967
0.389482
0.265104
0.249713
0.19497
0.19234
0.188789
0.197623
0.225489
0.203318
0.180328
0.119911
0.0966551
0.0701577
0.0788411
0.091313
0.0908996
0.0908636
0.0912741
0.0893804
0.0664713
0.0679595
0.081299
0.0858437
0.125004
0.0988709
0.0980326
0.0977443
0.100685
0.122805
0.118809
0.124297
0.10207
0.113504
0.138669
0.130496
0.136995
0.143232
0.146078
0.143479
0.144004
0.138291
0.165322
0.152313
0.162086
0.150348
0.15933
0.161378
0.168073
0.165382
0.179624
0.190296
0.155402
0.185143
0.185226
0.174972
0.163396
0.181405
0.161401
0.167509
0.173367
0.164767
0.166542
0.179743
0.159999
0.149787
0.136577
0.122932
0.123141
0.11558
0.0921958
0.0659352
0.056658
0.0485117
0.034114
0.0275782
0.00698898
0.000861313
-0.0542336
-0.0446554
-0.0531265
-0.0610003
-0.0542111
-0.0671617
-0.0709885
-0.0690948
-0.0689828
-0.0663449
-0.0701416
-0.0760023
-0.0785069
-0.0609306
-0.0603434
-0.0560804
-0.056838
-0.0575561
-0.060847
-0.0730476
-0.0598687
-0.0615324
-0.0553422
-0.051761
-0.0653736
-0.070445
-0.0381734
-0.0409845
-0.0566483
-0.0582008
-0.0567337
-0.0528003
-0.0466225
-0.0305652
-0.0663625
-0.0585872
-0.0605445
-0.0554662
-0.0525024
-0.0656717
-0.0538497
-0.0704452
-0.0617476
-0.0576164
-0.058976
-0.0592578
-0.0664906
-0.0717024
-0.0670703
-0.0521661
-0.0555666
-0.0666059
-0.0725362
-0.0670875
-0.0751954
-0.0675399
-0.0676562
-0.0733405
-0.0528602
-0.0431241
-0.079042
-0.0535341
-0.0682
-0.0765223
-0.058949
-0.0739127
-0.0640663
-0.0641658
-0.0733399
-0.0577969
-0.0679753
-0.0620447
-0.0722655
-0.0605047
-0.0727621
-0.0751109
-0.0542903
-0.0564684
-0.0621732
-0.0770286
-0.0823015
-0.0685842
-0.0746506
-0.0734764
-0.0707537
-0.0794973
-0.065778
-0.0487935
-0.0675459
-0.102077
-0.0736935
-0.0796693
-0.0747091
-0.0714798
-0.0872298
-0.0689026
-0.0671029
-0.0523424
-0.0843713
-0.0853407
-0.0571326
-0.0668899
-0.0665327
-0.0713283
-0.0826198
-0.0694208
-0.0749081
-0.0671469
-0.073323
-0.0641919
-0.0769056
-0.0741192
-0.057024
-0.0792948
-0.0441728
-0.0336969
-0.0744599
-0.0560582
-0.0272654
-0.0416312
-0.0398345
-0.0249246
-0.0111056
-0.0051081
0.0132516
0.0284363
0.0195799
0.00205072
-0.000842593
-0.00565969
-0.00590537
-0.0148477
-0.0644562
-0.0614311
-0.072504
-0.0760274
-0.0641866
-0.0724246
-0.0427239
-0.0353964
-0.0552344
-0.0676007
-0.0846925
-0.0724283
-0.0762302
-0.0506426
-0.0761864
-0.0952178
-0.086519
-0.084091
-0.0863469
-0.0779387
-0.0808536
-0.0848197
-0.0750274
-0.0626126
-0.0719849
-0.100451
-0.091139
-0.0899922
-0.0855339
-0.17449
-0.232088
-0.268344
-0.289776
-0.310076
-0.240524
-0.114616
0.0808702
0.160525
0.225054
0.321203
0.269883
0.221898
0.22535
0.205342
0.16415
0.18445
0.217484
0.206556
0.183499
0.142722
0.108847
0.082041
0.0906231
0.0836977
0.0778835
0.0779174
0.0774067
0.0825176
0.0889331
0.0845591
0.0866484
0.0817288
0.0974133
0.0912259
0.0905955
0.107895
0.109068
0.112496
0.109608
0.126826
0.124529
0.140485
0.104915
0.132146
0.140174
0.138432
0.127958
0.15679
0.148984
0.137582
0.14434
0.152405
0.149391
0.167343
0.177934
0.165038
0.171747
0.187794
0.19239
0.184294
0.183357
0.189845
0.176121
0.19831
0.19066
0.18016
0.182584
0.196399
0.195271
0.189111
0.192292
0.175798
0.16368
0.163427
0.16073
0.154718
0.163384
0.101907
0.0898287
0.0835673
0.0594187
0.0342972
0.0401032
0.00961673
0.000712568
-0.017792
-0.0167179
-0.0146795
-0.0569608
-0.0807627
-0.0650432
-0.0777591
-0.0584051
-0.0747856
-0.0697565
-0.0673896
-0.0710618
-0.067228
-0.0746974
-0.0729835
-0.0697789
-0.0738282
-0.0633109
-0.0666191
-0.0452499
-0.0691746
-0.0742534
-0.065834
-0.0664576
-0.0622979
-0.0564869
-0.0574913
-0.0459713
-0.0402302
-0.0650181
-0.0556335
-0.0685954
-0.0548211
-0.0519062
-0.0632574
-0.0565292
-0.0476763
-0.0525813
-0.0435442
-0.0508658
-0.0459988
-0.0527574
-0.0444427
-0.0392238
-0.0496873
-0.0558847
-0.0649055
-0.0555878
-0.0139816
-0.0495609
-0.0810678
-0.0522277
-0.0591851
-0.0628338
-0.0543763
-0.0553805
-0.0596241
-0.0504222
-0.0520878
-0.0671033
-0.0385086
-0.0409526
-0.0504509
-0.0939746
-0.0597995
-0.0752319
-0.0599828
-0.0543536
-0.0657203
-0.0515015
-0.0574559
-0.0616882
-0.0661849
-0.0633778
-0.0581705
-0.0500349
-0.0349696
-0.079049
-0.0521748
-0.0458865
-0.0847898
-0.0556396
-0.0649698
-0.0642285
-0.0547188
-0.0647168
-0.0646008
-0.0658946
-0.0646762
-0.052782
-0.0596876
-0.059672
-0.0938553
-0.0667138
-0.0521662
-0.0675565
-0.0706743
-0.063871
-0.0394932
-0.0539921
-0.0653435
-0.0734872
-0.0697797
-0.0690443
-0.0694469
-0.0600644
-0.053894
-0.0454748
-0.087581
-0.0668125
-0.0556916
-0.0625778
-0.05676
-0.0722441
-0.0633219
-0.051279
-0.0634253
-0.0504995
-0.0610136
-0.0561108
-0.0399483
-0.0623627
-0.0565274
-0.066875
-0.0633301
-0.0537937
-0.0382838
-0.0166494
-0.0208011
-0.0102089
-0.00104587
-0.000131525
0.00937986
0.0193281
0.00515837
0.0281532
0.0260893
0.0497063
0.0265979
0.0106214
-0.00541307
-0.0106043
-0.0414368
-0.0588373
-0.0578798
-0.055867
-0.0452383
-0.0349938
-0.0319415
-0.0514396
-0.0614236
-0.0689025
-0.0727437
-0.0724089
-0.0640062
-0.0672639
-0.0517495
-0.0716869
-0.0711792
-0.0685887
-0.0584585
-0.0777907
-0.081729
-0.0681297
-0.0781635
-0.0701519
-0.0221752
-0.071787
-0.0881019
-0.0808084
-0.128529
-0.203939
-0.247783
-0.296907
-0.336281
-0.291597
-0.192254
-0.020603
0.14568
0.194152
0.311914
0.276311
0.250744
0.205142
0.200215
0.19766
0.18296
0.22498
0.232138
0.208657
0.180235
0.129292
0.104184
0.0761687
0.0789202
0.113778
0.0951758
0.0850465
0.0939794
0.0930048
0.0954075
0.0946052
0.108562
0.107757
0.109083
0.0970091
0.0873266
0.0996422
0.110656
0.121388
0.119646
0.141148
0.139057
0.128648
0.11706
0.135453
0.144095
0.132726
0.131662
0.152178
0.15956
0.161087
0.152396
0.172644
0.17899
0.175153
0.172995
0.172847
0.178586
0.176666
0.202364
0.168787
0.190907
0.19636
0.198305
0.195388
0.202463
0.197402
0.194863
0.178969
0.19838
0.205131
0.17724
0.166873
0.14461
0.144542
0.139942
0.132322
0.119246
0.106252
0.0819783
0.067886
0.0435234
0.0168964
0.0299905
0.0209144
0.00407072
-0.0373569
-0.0454893
-0.048209
-0.0673767
-0.0622871
-0.0633604
-0.0760802
-0.0654742
-0.0868911
-0.0830681
-0.0824264
-0.0899727
-0.0868837
-0.0895274
-0.0811128
-0.0795629
-0.0613529
-0.070571
-0.0581999
-0.0552457
-0.0687465
-0.0883922
-0.0906849
-0.0787948
-0.0711789
-0.075881
-0.0403008
-0.0564517
-0.0813499
-0.0608387
-0.0678637
-0.0760176
-0.0619347
-0.0478963
-0.0640682
-0.0596252
-0.0527696
-0.0593375
-0.0573555
-0.0706735
-0.0580438
-0.0615812
-0.0818421
-0.0558588
-0.0495092
-0.0558885
-0.071516
-0.0657397
-0.0604946
-0.0603585
-0.0549584
-0.0655946
-0.0721967
-0.0634116
-0.064189
-0.0610505
-0.0637125
-0.0353485
-0.0647809
-0.0760139
-0.074058
-0.0667566
-0.0711917
-0.0747269
-0.068874
-0.0888302
-0.0716522
-0.0668956
-0.0694026
-0.0616935
-0.0791988
-0.0773435
-0.0725703
-0.0559521
-0.0534455
-0.0759835
-0.0607481
-0.0613384
-0.0765576
-0.0711829
-0.0780196
-0.0566205
-0.0571855
-0.0724913
-0.0651086
-0.0881924
-0.0687343
-0.0570662
-0.0468718
-0.0973265
-0.0845076
-0.067994
-0.075881
-0.0767709
-0.0749937
-0.0839042
-0.0742029
-0.0646524
-0.0633834
-0.0701778
-0.0782945
-0.0792479
-0.0683263
-0.082784
-0.0700087
-0.0556504
-0.0619438
-0.0638485
-0.0681739
-0.0766823
-0.075914
-0.0730648
-0.0590572
-0.0595928
-0.0494021
-0.0482281
-0.112551
-0.0748409
-0.0810217
-0.0751763
-0.058571
-0.0573417
-0.0721346
-0.063575
-0.0482796
-0.0209823
-0.0151313
-0.0127065
-0.0123586
-0.00197946
-0.015616
0.0281949
0.0467558
0.0307924
0.0124842
0.0201614
0.0166385
-0.0154344
-0.0249678
-0.0359863
-0.0307331
-0.0487957
-0.0562524
-0.0666048
-0.0454188
-0.0244212
-0.0511624
-0.0986138
-0.0830478
-0.0778326
-0.0769403
-0.0634422
-0.0833908
-0.0561657
-0.0633561
-0.0676289
-0.0717518
-0.0803153
-0.0656504
-0.0639809
-0.0817212
-0.0602537
-0.0602852
-0.0703075
-0.0977362
-0.0794429
-0.087017
-0.0841064
-0.128965
-0.209694
-0.242023
-0.250159
-0.259575
-0.226238
-0.0836373
0.073459
0.213008
0.242838
0.380514
0.344425
0.272093
0.218475
0.184489
0.167179
0.193076
0.205611
0.219637
0.221921
0.14741
0.129132
0.0961318
0.0798102
0.12549
0.0895048
0.0696476
0.0853281
0.0895441
0.0750508
0.0696706
0.0899275
0.099381
0.0787148
0.0982841
0.0928685
0.112284
0.106428
0.100091
0.0909872
0.114191
0.10494
0.110556
0.110536
0.105979
0.130638
0.121057
0.139868
0.144977
0.141098
0.139147
0.161757
0.138534
0.166405
0.142166
0.144636
0.143173
0.152709
0.158804
0.174035
0.185018
0.154377
0.173486
0.183133
0.194616
0.17128
0.177451
0.188001
0.178432
0.165713
0.187233
0.163537
0.171528
0.198698
0.193117
0.106732
0.131604
0.125204
0.108186
0.101837
0.0935359
0.0676319
0.061197
0.0358322
0.0156748
-0.00536133
-0.0102339
-0.0113268
-0.0272788
-0.0535103
-0.0492194
-0.040029
-0.0591433
-0.0559943
-0.0708133
-0.0792106
-0.0617966
-0.072126
-0.0451323
-0.0492089
-0.0855461
-0.0467419
-0.0621892
-0.0794368
-0.0706428
-0.0663907
-0.0579269
-0.0682367
-0.0568499
-0.0441328
-0.0498189
-0.0544886
-0.0472821
-0.062162
-0.0645428
-0.0579768
-0.0515851
-0.0402322
-0.0501964
-0.0448793
-0.0760536
-0.0453829
-0.0260193
-0.0556851
-0.0650176
-0.0522367
-0.0560899
-0.0416223
-0.0574729
-0.0668286
-0.0615427
-0.0548983
-0.0491677
-0.0594098
-0.0610969
-0.0439925
-0.0510183
-0.0537907
-0.0674042
-0.0546065
-0.0485071
-0.0576145
-0.0596759
-0.0744001
-0.0131306
-0.0540027
-0.0738951
-0.0690725
-0.0653186
-0.0763534
-0.0613846
-0.0570401
-0.0580922
-0.0591392
-0.076269
-0.0786415
-0.0660367
-0.0627701
-0.0468278
-0.0707353
-0.0657358
-0.0630604
-0.0753
-0.0643646
-0.0725198
-0.0624623
-0.036167
-0.0669397
-0.0749157
-0.0685228
-0.0725934
-0.072289
-0.0628484
-0.0745868
-0.07662
-0.0610038
-0.0835111
-0.0752024
-0.0764331
-0.0696626
-0.0464755
-0.0898313
-0.0932645
-0.0786449
-0.0754998
-0.0837206
-0.0831985
-0.0662215
-0.0933795
-0.0481413
-0.0576184
-0.10448
-0.089162
-0.0728495
-0.0465116
-0.0508706
-0.0316044
-0.0262872
-0.0452861
-0.0247383
-0.015347
0.000775306
0.0195352
0.0140578
0.0249433
0.00500912
0.0118056
-0.00668233
-0.0259039
-0.0114882
-0.0596738
-0.0273643
-0.0689794
-0.0853878
-0.0801853
-0.0782924
-0.0464731
-0.0642729
-0.0646256
-0.0814067
-0.0798306
-0.0813053
-0.0744024
-0.0866316
-0.0912683
-0.0863418
-0.105794
-0.0873111
-0.0834708
-0.100866
-0.0618117
-0.0688112
-0.0729168
-0.10728
-0.0824286
-0.0601931
-0.102055
-0.0970994
-0.098227
-0.10411
-0.183545
-0.251562
-0.261753
-0.29007
-0.277838
-0.184949
-0.0782046
0.152356
0.167957
0.261639
0.330037
0.243138
0.235684
0.191217
0.178715
0.206855
0.196569
0.185953
0.18932
0.157945
0.120143
0.0861369
0.060597
0.0626826
0.0674021
0.0736979
0.0976931
0.0916417
0.0862768
0.0808874
0.0893799
0.0883865
0.0774019
0.0772697
0.110313
0.0969923
0.0940805
0.0909006
0.122823
0.111764
0.0983712
0.113598
0.109274
0.125205
0.116218
0.131273
0.139856
0.12165
0.129514
0.127649
0.138618
0.154808
0.136081
0.144872
0.145083
0.162264
0.161312
0.16162
0.172477
0.197628
0.172075
0.165116
0.200228
0.177599
0.165486
0.163883
0.161987
0.186974
0.174444
0.181708
0.175579
0.177754
0.171755
0.14811
0.156508
0.145239
0.12228
0.123415
0.0966511
0.0840713
0.0958918
0.0453842
0.0238137
0.0121297
-0.00540928
-0.0183638
-0.0150601
-0.0442073
-0.0324051
-0.0618053
-0.0725556
-0.0821969
-0.0817122
-0.0688296
-0.0829142
-0.0686424
-0.0772114
-0.0789086
-0.0801658
-0.08156
-0.0834398
-0.0681197
-0.0639622
-0.0714833
-0.0716484
-0.0678605
-0.0639685
-0.0549959
-0.0558139
-0.062044
-0.0697742
-0.0628335
-0.0501893
-0.0521843
-0.0695989
-0.079065
-0.0647669
-0.0536856
-0.0426515
-0.0582062
-0.043585
-0.03578
-0.0716955
-0.060403
-0.0427491
-0.068991
-0.064761
-0.0674909
-0.0746679
-0.0521325
-0.0730957
-0.0576646
-0.0551655
-0.0615923
-0.0463995
-0.0707603
-0.0763558
-0.0747859
-0.0653267
-0.0565341
-0.0718128
-0.0677525
-0.0584774
-0.0690683
-0.0495965
-0.0720947
-0.0526413
-0.060241
-0.0380312
-0.0547153
-0.089507
-0.0668729
-0.0600477
-0.0592963
-0.0469802
-0.0720168
-0.0313041
-0.0668956
-0.101115
-0.0635668
-0.0763985
-0.0935694
-0.0677752
-0.0547674
-0.0716234
-0.0716366
-0.0656255
-0.0485694
-0.0992117
-0.0813436
-0.0747958
-0.0841818
-0.0741003
-0.0636672
-0.0589535
-0.0648529
-0.0581407
-0.048305
-0.0791285
-0.0855801
-0.0698938
-0.0823066
-0.0529382
-0.0506644
-0.0684903
-0.0670667
-0.066625
-0.0768362
-0.0721847
-0.0767676
-0.0464394
-0.0469853
-0.0218909
-0.0327856
-0.0316291
-0.0281326
-0.0232772
-0.00784535
0.0236753
0.0328202
0.0276436
0.0103906
-0.006649
0.00130234
0.00461448
-0.0281287
-0.0319413
-0.0462013
-0.0498885
-0.0904239
-0.0816606
-0.0591995
-0.0661816
-0.0657845
-0.0595573
-0.0622136
-0.0723754
-0.0924415
-0.0792439
-0.0827062
-0.0868539
-0.070595
-0.063933
-0.0641158
-0.0869474
-0.0968664
-0.0649342
-0.0753792
-0.0641303
-0.064327
-0.0844971
-0.0885758
-0.0847625
-0.0630726
-0.105658
-0.119862
-0.197807
-0.24915
-0.284743
-0.332736
-0.317886
-0.225601
-0.0964476
0.102949
0.162236
0.270842
0.304464
0.259228
0.210343
0.186803
0.191926
0.191817
0.201868
0.229131
0.225639
0.188943
0.149972
0.101386
0.0557789
0.0642776
0.0900991
0.0908635
0.0925766
0.0890415
0.0885717
0.0913459
0.0944595
0.0875324
0.0851938
0.0877301
0.110613
0.104529
0.115102
0.116284
0.116915
0.122949
0.141933
0.132174
0.131394
0.153287
0.137399
0.133536
0.112553
0.134534
0.141109
0.156141
0.165194
0.171996
0.156634
0.176467
0.17528
0.183943
0.205454
0.181663
0.164418
0.176852
0.174723
0.190859
0.209644
0.194079
0.214941
0.206408
0.196957
0.202505
0.209678
0.206831
0.152
0.178459
0.17908
0.171402
0.162737
0.12244
0.122168
0.121256
0.106309
0.0868595
0.0838649
0.0619716
0.0427902
0.0183098
0.00636873
-0.0135027
-0.0311516
-0.0305295
-0.0506576
-0.0595775
-0.0605644
-0.0613026
-0.0638563
-0.064626
-0.0768585
-0.0621785
-0.0765063
-0.0703674
-0.0586712
-0.0513133
-0.100178
-0.082862
-0.0792824
-0.0727939
-0.0687439
-0.077432
-0.0634092
-0.0847849
-0.0742007
-0.0551091
-0.0506262
-0.0679847
-0.0561081
-0.0601626
-0.0633579
-0.0645395
-0.0524893
-0.0613128
-0.0618191
-0.0605743
-0.0580686
-0.0657693
-0.0654622
-0.057359
-0.0517602
-0.0670368
-0.0717465
-0.0546635
-0.0529085
-0.0569243
-0.060343
-0.0653079
-0.0519305
-0.0716388
-0.0531799
-0.0688459
-0.0632327
-0.0382748
-0.0417611
-0.0876685
-0.0725052
-0.0603533
-0.0735611
-0.071366
-0.0755825
-0.0922746
-0.0634751
-0.0718036
-0.0656322
-0.0820022
-0.0770893
-0.0794698
-0.0739366
-0.0716526
-0.0770513
-0.0749153
-0.082206
-0.0829259
-0.0775397
-0.0768438
-0.0637082
-0.0655191
-0.0636997
-0.0684328
-0.0765828
-0.074489
-0.0922129
-0.0700697
-0.0773517
-0.0704433
-0.0663729
-0.0842251
-0.0679154
-0.064307
-0.0695516
-0.0714165
-0.110463
-0.0851065
-0.0752744
-0.0610005
-0.0877145
-0.0879141
-0.08355
-0.0922406
-0.0849315
-0.0803499
-0.0824015
-0.0880327
-0.0812817
-0.0795987
-0.0624207
-0.0287785
-0.0323413
-0.0373707
-0.0282393
-0.0161481
-0.00595599
0.00580222
0.0166391
0.00304038
0.00722121
-0.00706589
-0.0124526
0.00199046
-0.00672911
-0.0404946
-0.0442537
-0.0630436
-0.0701472
-0.0835303
-0.0674396
-0.0625455
-0.0698309
-0.0667346
-0.0715136
-0.0867778
-0.0819703
-0.0646506
-0.100522
-0.0976455
-0.0917531
-0.0886854
-0.0913798
-0.102351
-0.0849239
-0.0874753
-0.0958258
-0.0790362
-0.0750299
-0.0671826
-0.0870852
-0.0886625
-0.0846193
-0.106302
-0.120292
-0.197742
-0.251413
-0.260123
-0.292902
-0.301996
-0.177434
-0.06117
0.203461
0.216085
0.303267
0.364279
0.262828
0.262336
0.187234
0.16235
0.172001
0.179399
0.210898
0.202192
0.177074
0.119429
0.0893062
0.0602789
0.0654506
0.0919744
0.0977338
0.089217
0.0659372
0.081741
0.0912422
0.0742442
0.0662041
0.0857717
0.0860874
0.0919894
0.0669236
0.0811052
0.101703
0.101556
0.0983381
0.100842
0.123872
0.124587
0.0860378
0.109356
0.131226
0.126621
0.124232
0.131302
0.124143
0.139303
0.143308
0.149442
0.135331
0.143827
0.140168
0.138916
0.134089
0.162036
0.153531
0.157
0.1644
0.173963
0.17131
0.185341
0.186982
0.17686
0.169928
0.153923
0.16127
0.159382
0.163464
0.151856
0.135629
0.141237
0.129349
0.136383
0.118721
0.067249
0.0791513
0.0770239
0.0188223
0.0214854
0.00957322
0.000990357
-0.0284377
-0.0251818
-0.0409227
-0.046465
-0.0483252
-0.0630113
-0.0634368
-0.0614318
-0.0760558
-0.0669553
-0.0765979
-0.0677336
-0.0549894
-0.0703643
-0.0770823
-0.0681729
-0.0558619
-0.059464
-0.0645202
-0.0639133
-0.0607188
-0.0546283
-0.0497744
-0.0576343
-0.050586
-0.0482408
-0.0559045
-0.0558238
-0.0427711
-0.0362229
-0.0327453
-0.0585924
-0.0415483
-0.0459801
-0.0409415
-0.0312681
-0.0515519
-0.0427884
-0.0493286
-0.0479742
-0.0508938
-0.0566077
-0.0473301
-0.0478166
-0.0585354
-0.0527951
-0.0556688
-0.0619432
-0.0643956
-0.060807
-0.0751068
-0.0486447
-0.0604399
-0.0520137
-0.0599556
-0.0710341
-0.060517
-0.065592
-0.0605192
-0.0540724
-0.0557616
-0.0383234
-0.0762778
-0.0538367
-0.0642345
-0.0673952
-0.0600491
-0.0663473
-0.0658293
-0.0735236
-0.0571796
-0.0497653
-0.0816035
-0.0723431
-0.0810173
-0.0692658
-0.0605069
-0.0629217
-0.055205
-0.0637318
-0.0799187
-0.0704717
-0.0741444
-0.0680834
-0.0655688
-0.0713576
-0.074895
-0.0702644
-0.07379
-0.078413
-0.0706765
-0.0849328
-0.0662659
-0.0631477
-0.0671656
-0.0580025
-0.0827982
-0.0641793
-0.0609522
-0.044632
-0.0433805
-0.0397044
-0.00710392
-0.0170754
-0.0146818
-0.0138903
0.0372138
0.0650185
0.00363735
0.0156793
0.0163321
-0.00112171
0.000189559
-0.00469833
-0.0142849
-0.0536393
-0.0610814
-0.0709191
-0.0718758
-0.0611714
-0.0397236
-0.0488888
-0.0655777
-0.0680086
-0.0758305
-0.0666811
-0.0735131
-0.0779164
-0.0791089
-0.0701359
-0.0714729
-0.0700994
-0.0801075
-0.0751647
-0.0868944
-0.0789604
-0.0727171
-0.0753079
-0.0752196
-0.0900044
-0.0720338
-0.0653885
-0.0826602
-0.0913662
-0.126377
-0.189548
-0.24316
-0.261332
-0.257536
-0.22866
-0.0822258
0.083951
0.224382
0.221726
0.337623
0.32189
0.254275
0.215697
0.17267
0.167123
0.175328
0.178605
0.198011
0.191844
0.144568
0.0989902
0.0690844
0.0946019
0.0874966
0.0501096
0.0739026
0.0696213
0.0852421
0.0753363
0.0866928
0.0643844
0.0644958
0.0828169
0.0891335
0.0923458
0.0806129
0.09378
0.0992308
0.0936994
0.0999758
0.093755
0.108734
0.114493
0.108778
0.111407
0.110926
0.109585
0.104639
0.0941815
0.126508
0.12026
0.135554
0.129665
0.137679
0.128091
0.150806
0.137877
0.152746
0.153181
0.141922
0.154498
0.164732
0.155058
0.162618
0.146772
0.165271
0.166315
0.169783
0.161919
0.153425
0.14803
0.145761
0.151122
0.144119
0.130718
0.129626
0.100118
0.093232
0.0732498
0.0645366
0.0489946
0.028478
0.00824485
-0.00369448
-0.0182828
-0.032996
-0.0490822
-0.0556357
-0.0656355
-0.070894
-0.08054
-0.0795404
-0.0781971
-0.0774565
-0.0824325
-0.0848443
-0.0688985
-0.0792327
-0.0700182
-0.0639992
-0.0760943
-0.0681934
-0.0906107
-0.0611755
-0.0615878
-0.0724332
-0.0525376
-0.0562414
-0.0697677
-0.0672516
-0.0690695
-0.0669546
-0.062914
-0.0676348
-0.059044
-0.0561893
-0.0535827
-0.0565676
-0.050583
-0.0598937
-0.0629426
-0.0595791
-0.0601276
-0.0653882
-0.0667348
-0.0615057
-0.0681173
-0.0605603
-0.0598736
-0.0574594
-0.0569782
-0.0563932
-0.0468889
-0.0658497
-0.0499329
-0.0594511
-0.0635765
-0.0661453
-0.0681717
-0.0559933
-0.0499494
-0.0638689
-0.0664549
-0.0597278
-0.0624516
-0.0574653
-0.064439
-0.0589006
-0.0683915
-0.0501632
-0.0620314
-0.0684495
-0.0535781
-0.0710633
-0.0709476
-0.0646312
-0.071055
-0.0695886
-0.0706786
-0.0646592
-0.0672035
-0.082392
-0.0701203
-0.0711914
-0.0790599
-0.07966
-0.0826214
-0.0683289
-0.0625601
-0.063992
-0.0699266
-0.0638535
-0.0753951
-0.06681
-0.0842714
-0.0668164
-0.0701139
-0.0725171
-0.0660622
-0.0707932
-0.0661576
-0.0824263
-0.0668851
-0.0603746
-0.0743822
-0.0667949
-0.0708555
-0.055671
-0.0248147
-0.0159221
-0.0125595
-0.0214257
-0.0121177
-0.0105381
0.018744
0.037861
0.0269903
0.0245586
0.00712293
-0.00444651
-0.00228114
-0.00636302
-0.0246407
-0.0510076
-0.0616214
-0.0709192
-0.065344
-0.0557184
-0.0610502
-0.0498255
-0.0619909
-0.0629228
-0.0677569
-0.078104
-0.0770121
-0.0832985
-0.0749472
-0.0728204
-0.0793843
-0.074311
-0.0847516
-0.0712441
-0.0698829
-0.0710269
-0.0708185
-0.0822738
-0.0726687
-0.0789277
-0.0781691
-0.0826375
-0.0887829
-0.101061
-0.141956
-0.224024
-0.282955
-0.291155
-0.324034
-0.273702
-0.187659
-0.0219411
0.152531
0.186236
0.279408
0.254502
0.233322
0.205609
0.173404
0.192098
0.178759
0.200482
0.222523
0.188192
0.143248
0.11293
0.0874889
0.0795466
0.0820124
0.0931132
0.0879604
0.0759716
0.0802825
0.0768406
0.0830064
0.0820646
0.0848684
0.094612
0.0876919
0.0950171
0.108264
0.0990884
0.111424
0.105579
0.108297
0.100651
0.114523
0.116575
0.131544
0.130007
0.136281
0.142042
0.140888
0.155571
0.14933
0.155319
0.155588
0.165172
0.173599
0.167404
0.176901
0.163112
0.173251
0.183552
0.179369
0.19622
0.202608
0.192927
0.199269
0.19328
0.198476
0.199177
0.194079
0.193604
0.181172
0.172809
0.167849
0.152593
0.158454
0.145107
0.134377
0.128668
0.115322
0.0976574
0.0850968
0.0553512
0.0377601
0.0201965
0.00505598
-0.00887075
-0.0301186
-0.0317754
-0.0478738
-0.0525344
-0.0568598
-0.0678908
-0.0667708
-0.0689208
-0.0682924
-0.0719486
-0.0828521
-0.0700765
-0.0719387
-0.0683589
-0.0732486
-0.0819356
-0.0735327
-0.0728966
-0.0808782
-0.075879
-0.0820644
-0.0689615
-0.0677574
-0.0640114
-0.0629897
-0.0671944
-0.0692064
-0.0664611
-0.0778594
-0.0616951
-0.0652811
-0.0621039
-0.0659506
-0.0545686
-0.0641667
-0.045317
-0.0644892
-0.055103
-0.0431992
-0.0535653
-0.0433557
-0.0532452
-0.0587877
-0.0577908
-0.0620612
-0.0484506
-0.0662105
-0.0618543
-0.0544095
-0.0538379
-0.0516873
-0.0592963
-0.0671481
-0.0720304
-0.0670453
-0.0691745
-0.0753926
-0.0724839
-0.0606379
-0.0638558
-0.0670829
-0.0714838
-0.0626731
-0.0721102
-0.0713864
-0.0775925
-0.0645327
-0.0685108
-0.0713751
-0.0637956
-0.0758787
-0.0625278
-0.0628347
-0.0653103
-0.0631455
-0.0691203
-0.0455254
-0.073497
-0.0627837
-0.070504
-0.0754725
-0.0545631
-0.0683721
-0.0536459
-0.0628951
-0.0751446
-0.059785
-0.0603399
-0.0596611
-0.0672767
-0.0573248
-0.0653397
-0.0743431
-0.0516826
-0.0665791
-0.0690938
-0.0583842
-0.0643925
-0.0685361
-0.0717264
-0.0645896
-0.0670344
-0.0704375
-0.0651025
-0.0566498
-0.0628776
-0.0654623
-0.0535371
-0.055212
-0.0291805
-0.0130205
-0.0168494
0.000238269
-0.0117888
-0.000224448
0.0189772
0.0337346
0.0448941
0.0252575
0.0142384
0.0170013
0.0101683
0.0224583
-0.00688875
-0.01964
-0.0480314
-0.0537998
-0.0611864
-0.0730583
-0.0485977
-0.0520613
-0.0573888
-0.0573225
-0.0702953
-0.0654177
-0.0709151
-0.0766572
-0.0770697
-0.0695711
-0.086976
-0.0775695
-0.0817394
-0.0715569
-0.0768541
-0.0811342
-0.0709429
-0.0727007
-0.0759354
-0.0691995
-0.0727523
-0.0758759
-0.0625955
-0.0844006
-0.107687
-0.189749
-0.250295
-0.28943
-0.325946
-0.322198
-0.235894
-0.0829747
0.118772
0.173972
0.26658
0.300419
0.245195
0.194296
0.179657
0.166226
0.178878
0.18336
0.21066
0.213491
0.162252
0.119224
0.0886842
0.0913243
0.0887932
0.0756779
0.0954053
0.0831591
0.099159
0.0912654
0.0903258
0.101586
0.0941062
0.0983042
0.0957779
0.104002
0.120745
0.106672
0.115856
0.108237
0.112537
0.124843
0.117008
0.13199
0.132627
0.135728
0.133733
0.141197
0.143904
0.143003
0.139415
0.144269
0.145322
0.14879
0.154393
0.167442
0.160322
0.166415
0.169778
0.176867
0.17072
0.170744
0.191497
0.187071
0.198525
0.188081
0.173319
0.198573
0.178868
0.177509
0.17245
0.18288
0.17362
0.165281
0.160887
0.149773
0.134305
0.128569
0.107427
0.100855
0.078051
0.0593833
0.0362928
0.0274194
0.0186067
0.00431115
-0.0210608
-0.0343727
-0.0506865
-0.0506693
-0.0573778
-0.0681473
-0.0835607
-0.0758707
-0.0618291
-0.0589382
-0.0849985
-0.08046
-0.0711186
-0.082662
-0.0772666
-0.0757297
-0.0771833
-0.0694036
-0.0780939
-0.0683308
-0.0673835
-0.0768387
-0.0667665
-0.0709966
-0.0559815
-0.0650083
-0.0596204
-0.0412761
-0.0632242
-0.0460867
-0.0466686
-0.0586749
-0.0509761
-0.0686794
-0.0504993
-0.059335
-0.0651589
-0.0650113
-0.0572821
-0.041024
-0.044979
-0.0492593
-0.0505407
-0.0649683
-0.0684867
-0.0605354
-0.0680443
-0.0666378
-0.0447182
-0.0567898
-0.06199
-0.0716913
-0.0724675
-0.06643
-0.0536749
-0.0402198
-0.0693218
-0.0842846
-0.0562277
-0.0739623
-0.0639792
-0.069957
-0.0632676
-0.0641637
-0.0635904
-0.0622209
-0.0645983
-0.0614836
-0.0643017
-0.0614826
-0.0567962
-0.0632459
-0.0580998
-0.0677535
-0.0695512
-0.0735419
-0.0658703
-0.0732393
-0.0716246
-0.073749
-0.0653172
-0.0784345
-0.0720485
-0.0720502
-0.0769987
-0.0739384
-0.0788947
-0.0726554
-0.0731566
-0.0782824
-0.0762691
-0.0761629
-0.0591367
-0.0770909
-0.065626
-0.0711756
-0.0581143
-0.0495473
-0.0610232
-0.0570823
-0.0805286
-0.0726297
-0.0829344
-0.0670692
-0.0596415
-0.0541819
-0.0626323
-0.0794456
-0.071463
-0.0633339
-0.0668999
-0.0658887
-0.0751022
-0.0524184
-0.0333038
-0.0346125
-0.0282351
-0.0218693
-0.0200801
-0.00969786
0.0137379
0.0035661
0.0343819
0.00538027
0.00522099
0.0181318
0.000750845
0.00984103
-0.0251205
-0.0407662
-0.0514863
-0.0825272
-0.0633443
-0.0445779
-0.0307426
-0.0211936
-0.0503106
-0.0602123
-0.0750632
-0.0807572
-0.0868738
-0.0863167
-0.0655589
-0.0726822
-0.0641517
-0.0837716
-0.0824639
-0.0881304
-0.0923309
-0.0960278
-0.0749626
-0.0856531
-0.0778038
-0.0800741
-0.0915921
-0.0945633
-0.0967856
-0.0953513
-0.161808
-0.22204
-0.242831
-0.262767
-0.30741
-0.240347
-0.12442
0.0662029
0.220338
0.216711
0.366857
0.339967
0.255486
0.219731
0.171641
0.178721
0.185513
0.194544
0.214821
0.182159
0.155018
0.102884
0.0713389
0.0819829
0.0677836
0.0860721
0.0819827
0.084444
0.0828413
0.0764737
0.0681179
0.0870307
0.0728742
0.0892962
0.105238
0.0942875
0.0900452
0.0884185
0.0871719
0.107195
0.100852
0.0991309
0.103922
0.107241
0.115299
0.107985
0.129456
0.133355
0.119323
0.126431
0.12079
0.134233
0.137745
0.146236
0.154497
0.131382
0.148566
0.153034
0.168868
0.168482
0.159864
0.175576
0.1632
0.160028
0.167257
0.175397
0.184548
0.181268
0.166438
0.161597
0.16306
0.155733
0.147368
0.127983
0.134325
0.13786
0.127302
0.10857
0.101521
0.0872681
0.0748132
0.064434
0.034025
0.028008
0.0162461
-0.000160661
-0.0297413
-0.0291237
-0.0245782
-0.0418837
-0.0531617
-0.072165
-0.0597081
-0.0551926
-0.0692854
-0.0733221
-0.067723
-0.0485173
-0.060832
-0.0471806
-0.0657817
-0.0752942
-0.0683654
-0.0594669
-0.0656624
-0.058623
-0.0628568
-0.0601395
-0.0530688
-0.0518812
-0.057977
-0.0563292
-0.0636479
-0.0615663
-0.0559601
-0.043993
-0.0486811
-0.0587311
-0.0459047
-0.0540229
-0.0628267
-0.0489146
-0.049186
-0.0408852
-0.0481591
-0.0487648
-0.0401246
-0.0468157
-0.0493187
-0.0494093
-0.0509728
-0.0573819
-0.0705247
-0.0650611
-0.0637473
-0.0535785
-0.0428047
-0.0552524
-0.0539672
-0.055184
-0.058756
-0.0614897
-0.0758724
-0.0658105
-0.0446337
-0.0526589
-0.0696697
-0.0674355
-0.0694073
-0.0589323
-0.0693699
-0.0635162
-0.0408997
-0.0735676
-0.0560636
-0.05808
-0.0601499
-0.0561844
-0.0631272
-0.0659262
-0.0618542
-0.0687684
-0.0573681
-0.0729113
-0.0763404
-0.0727632
-0.0625718
-0.0575004
-0.0747734
-0.057163
-0.0718428
-0.0717476
-0.0627042
-0.061576
-0.0681318
-0.0720734
-0.0825593
-0.0751552
-0.0721869
-0.0569967
-0.0763836
-0.0611951
-0.0680782
-0.0615906
-0.0665436
-0.0676511
-0.0597475
-0.068629
-0.0588064
-0.0846333
-0.073765
-0.0642914
-0.0419518
-0.0108206
-0.00710158
-0.000655695
-0.00600933
-0.0153127
0.0123492
0.018366
0.0370024
0.0340755
0.026962
0.0164526
-0.00217313
0.0274473
-0.00188766
-0.0252097
-0.0466971
-0.0557285
-0.0561302
-0.0618161
-0.0459656
-0.0472082
-0.058253
-0.0536858
-0.05876
-0.0663873
-0.0771177
-0.076655
-0.0820106
-0.0746211
-0.0706391
-0.0716422
-0.0659353
-0.0809466
-0.0793287
-0.0798247
-0.0819041
-0.0700464
-0.0793033
-0.0737803
-0.0700762
-0.0801291
-0.0760432
-0.0909067
-0.0947925
-0.138436
-0.216558
-0.250068
-0.280565
-0.292009
-0.232765
-0.133301
0.0578085
0.160715
0.210315
0.302409
0.256255
0.231633
0.195365
0.175878
0.17073
0.159176
0.20295
0.207031
0.183572
0.131947
0.0971213
0.0787522
0.0831178
0.0798781
0.0862851
0.08191
0.0786019
0.0723177
0.0738747
0.0840344
0.08969
0.0814064
0.0885175
0.0886206
0.107327
0.0964349
0.0909816
0.109633
0.100269
0.103341
0.102098
0.116147
0.119609
0.118926
0.13319
0.132681
0.139772
0.1263
0.13263
0.142091
0.143302
0.142714
0.141507
0.160405
0.156239
0.166028
0.164816
0.167073
0.165293
0.167797
0.164952
0.176005
0.177859
0.190272
0.175895
0.192162
0.188189
0.179697
0.185309
0.171694
0.177837
0.170334
0.163378
0.155303
0.140323
0.146143
0.127426
0.113733
0.0951403
0.0688768
0.0602597
0.0424916
0.0296143
0.00871609
-0.00857625
-0.0216732
-0.0464606
-0.057138
-0.0660921
-0.0539233
-0.0824374
-0.0744102
-0.0617291
-0.0774447
-0.0781262
-0.0758848
-0.0722378
-0.0781977
-0.0915311
-0.0592467
-0.0627914
-0.0677651
-0.0717173
-0.0706225
-0.0602755
-0.0639366
-0.062856
-0.0593427
-0.054873
-0.0453078
-0.0562468
-0.0513619
-0.0580654
-0.0554395
-0.0554451
-0.0636111
-0.0570906
-0.0528619
-0.0575048
-0.0638547
-0.0609785
-0.0558398
-0.0446412
-0.0602159
-0.0677274
-0.0663255
-0.0514032
-0.0582912
-0.0607018
-0.0572457
-0.0686368
-0.0596216
-0.0527457
-0.0580488
-0.0655257
-0.0559313
-0.0733794
-0.04889
-0.0583147
-0.061725
-0.0582454
-0.0665535
-0.0616108
-0.0685527
-0.0589969
-0.0546065
-0.0769994
-0.0648098
-0.0698414
-0.0774864
-0.0540596
-0.0705936
-0.0603156
-0.0531976
-0.0634097
-0.0667478
-0.0722406
-0.0839276
-0.0835496
-0.0768917
-0.0737981
-0.0908841
-0.0795155
-0.0718927
-0.0780631
-0.0803476
-0.064501
-0.0658661
-0.0781007
-0.0711004
-0.0656114
-0.0640201
-0.0817696
-0.0721229
-0.0721126
-0.0627066
-0.0664689
-0.0761246
-0.065831
-0.0671388
-0.0738226
-0.0609258
-0.0697633
-0.0600274
-0.0712326
-0.0732015
-0.0684918
-0.0725213
-0.0645097
-0.0613977
-0.0650243
-0.0593042
-0.080347
-0.0771263
-0.0755791
-0.0733832
-0.0684545
-0.0701904
-0.0667435
-0.0317472
-0.023417
-0.0160952
-0.00504045
-0.0042072
-0.00481587
0.00375793
0.0206386
0.0172001
0.0146965
0.0202432
0.0129606
0.0135693
0.0225312
-0.0088461
-0.0364225
-0.0489201
-0.0605084
-0.0690302
-0.0656141
-0.0496428
-0.0609414
-0.0558735
-0.064727
-0.0815328
-0.0771536
-0.0850031
-0.0706233
-0.0716234
-0.0685338
-0.0778704
-0.0851632
-0.0839478
-0.0788147
-0.0844644
-0.0915607
-0.0813818
-0.0880287
-0.0854899
-0.0803156
-0.0910332
-0.0725282
-0.086979
-0.0968601
-0.160134
-0.230167
-0.272501
-0.304785
-0.337911
-0.263795
-0.167709
0.017864
0.129297
0.1817
0.30116
0.23631
0.227843
0.192525
0.164332
0.185282
0.172254
0.217339
0.207488
0.181432
0.137088
0.0990769
0.0867598
0.0655931
0.0861089
0.0815348
0.0747547
0.0950273
0.0856399
0.0911614
0.0845773
0.0834626
0.0754222
0.0917436
0.0764339
0.0960267
0.108222
0.107112
0.116959
0.116759
0.121698
0.123068
0.127302
0.133428
0.139077
0.136408
0.144915
0.144117
0.155307
0.145344
0.151966
0.175706
0.162727
0.172751
0.163478
0.174174
0.174383
0.179265
0.187934
0.189507
0.189861
0.196764
0.19178
0.204066
0.206511
0.204885
0.202694
0.201303
0.198317
0.200572
0.202133
0.185026
0.186852
0.176838
0.155765
0.161493
0.130604
0.144459
0.116819
0.114185
0.0978362
0.0752347
0.0650872
0.0264184
0.0179852
-0.00386615
-0.0202305
-0.0233147
-0.0382422
-0.0387007
-0.0546817
-0.0470109
-0.0528404
-0.05701
-0.058685
-0.0696195
-0.0812814
-0.0806057
-0.0777764
-0.0667381
-0.0616149
-0.0772432
-0.0688344
-0.0725237
-0.0606535
-0.061549
-0.0639943
-0.061674
-0.0502381
-0.0622894
-0.0663685
-0.0626531
-0.0582428
-0.0458639
-0.0524862
-0.0400071
-0.0353284
-0.0467246
-0.0404659
-0.0510971
-0.0472695
-0.0510265
-0.0633056
-0.0461264
-0.0579769
-0.0510051
-0.0518194
-0.0561869
-0.0449168
-0.0609948
-0.0530557
-0.0507048
-0.055509
-0.0439386
-0.06508
-0.0612705
-0.0576604
-0.0644137
-0.0663081
-0.0481551
-0.0344465
-0.0596291
-0.079137
-0.0642742
-0.0561071
-0.0632554
-0.0525107
-0.0548538
-0.0670165
-0.0649962
-0.0626242
-0.0531346
-0.0475028
-0.0456821
-0.0499378
-0.0614709
-0.0534004
-0.0571294
-0.059371
-0.0379211
-0.0616532
-0.0432096
-0.052844
-0.0602935
-0.0489976
-0.0499978
-0.0443585
-0.0496536
-0.0616701
-0.0483194
-0.0623928
-0.0626443
-0.0685319
-0.0776484
-0.0639958
-0.0707724
-0.0629118
-0.0654397
-0.0583761
-0.0611877
-0.0461068
-0.0649797
-0.056284
-0.054963
-0.0630442
-0.0543769
-0.0596841
-0.0619606
-0.0585078
-0.0637581
-0.039608
-0.0628396
-0.0633475
-0.0691301
-0.0535053
-0.0447851
-0.0622727
-0.0533341
-0.0619061
-0.0684742
-0.0530064
-0.0668437
-0.0486769
-0.0538062
-0.0609013
-0.0644667
-0.0724761
-0.0611528
-0.068739
-0.0619152
-0.0553128
-0.0461219
-0.0656184
-0.0777216
-0.0406797
-0.0265869
-0.0136237
-0.0159336
-0.0127935
-0.000369814
-0.00546293
0.021036
0.0361787
0.0572967
0.0388909
0.0146804
0.0196934
0.00795209
0.00385306
-0.0228778
-0.0333442
-0.0457434
-0.0765436
-0.0590537
-0.0506829
-0.0375838
-0.0463352
-0.0533372
-0.0483839
-0.079522
-0.0781522
-0.0561047
-0.0751838
-0.0618994
-0.0735009
-0.0683511
-0.0691989
-0.0859973
-0.0934161
-0.0735018
-0.0862388
-0.0847739
-0.0758105
-0.0767825
-0.09043
-0.0889791
-0.0970341
-0.0935446
-0.166767
-0.230267
-0.270763
-0.29906
-0.286013
-0.215048
-0.0787721
0.158382
0.221751
0.270136
0.373911
0.289108
0.244761
0.17262
0.170374
0.186951
0.166759
0.212856
0.200794
0.173251
0.113836
0.0961944
0.0760201
0.0686552
0.0899072
0.0876137
0.0924462
0.0770348
0.0847822
0.0851669
0.0665295
0.074866
0.0830476
0.0810749
0.0868177
0.0944941
0.101596
0.100197
0.10041
0.0926451
0.131541
0.113889
0.112611
0.127639
0.112438
0.116644
0.106882
0.125444
0.109792
0.113039
0.151652
0.140691
0.148892
0.137785
0.152203
0.151522
0.146492
0.147132
0.15666
0.166813
0.163085
0.147261
0.16331
0.154517
0.188777
0.169201
0.181031
0.189595
0.174408
0.168917
0.163681
0.161887
0.167273
0.152456
0.150053
0.13529
0.150804
0.131517
0.125802
0.101112
0.0848395
0.059728
0.039479
0.0356309
0.00411465
-0.00283422
-0.00848206
-0.0237691
-0.0228988
-0.0429628
-0.0539183
-0.0559168
-0.0791062
-0.0625982
-0.0640645
-0.0535332
-0.072729
-0.0695513
-0.0593435
-0.0520949
-0.0727646
-0.0660709
-0.0740634
-0.0739297
-0.0649867
-0.0587595
-0.058065
-0.0596065
-0.0662645
-0.0457074
-0.0585817
-0.0608206
-0.0561843
-0.0741875
-0.0531303
-0.0493187
-0.0345021
-0.0408138
-0.0615982
-0.0552099
-0.053034
-0.0531941
-0.0404733
-0.0553369
-0.0558238
-0.0638446
-0.0561471
-0.0462189
-0.0651914
-0.0707785
-0.068803
-0.0765614
-0.0641566
-0.0680517
-0.0578592
-0.0658588
-0.0726578
-0.0665127
-0.0608408
-0.0677911
-0.0619036
-0.0635969
-0.0704747
-0.0705592
-0.07342
-0.0688137
-0.0694336
-0.0852162
-0.075262
-0.0835926
-0.0584371
-0.0722313
-0.0729321
-0.0710188
-0.0801713
-0.0696271
-0.0660254
-0.0587552
-0.0568577
-0.084065
-0.0643205
-0.0588567
-0.0777819
-0.0698289
-0.0651744
-0.0743366
-0.0867403
-0.0772648
-0.0750439
-0.0712943
-0.0734767
-0.0777335
-0.0763926
-0.0696179
-0.0613561
-0.0715433
-0.0747542
-0.0663196
-0.0777269
-0.0663242
-0.0683441
-0.0856907
-0.0661575
-0.0655645
-0.0612047
-0.0657001
-0.0704455
-0.0800172
-0.0633008
-0.0550023
-0.0744151
-0.0658679
-0.0639996
-0.0671483
-0.0527839
-0.0663495
-0.0107506
-0.0100594
-0.0123195
-0.00678633
-0.0254657
0.00114484
0.0309196
0.029102
0.0208978
0.0102418
0.0128648
0.0129315
0.00602523
-0.0157791
-0.0360978
-0.045422
-0.0700521
-0.0767447
-0.07692
-0.0543396
-0.0374832
-0.0520328
-0.0645087
-0.0818072
-0.0654283
-0.0809943
-0.0747687
-0.0813106
-0.0756327
-0.0604619
-0.0809014
-0.0741878
-0.080192
-0.0745047
-0.0604475
-0.0710529
