-0.00340649
-0.00331107
-0.00521344
-0.00312625
-6.09964e-005
-0.00102698
-3.06263e-005
0.000925243
-0.000158287
-0.00127643
-0.000421062
0.00141865
0.00125512
-0.000899025
-0.00103212
0.00086562
-0.000198901
-0.00122246
0.00179427
0.00184686
-7.2634e-005
-0.00297507
-0.00387296
-0.00277914
-0.000705451
-0.00166176
-0.00165512
0.00031097
0.00123703
0.00212742
0.00198985
-0.000165388
-0.00132639
-0.00148066
-0.00161623
-0.000722853
-0.00179298
-0.000822549
-0.000811317
-0.00076291
-0.00168454
-0.00358634
-0.00548038
-0.00237937
-0.00129531
-0.00523867
-0.0052175
-0.00423631
-0.00629574
-0.0083926
-0.00352003
-0.00366801
-0.00582464
-0.00697739
-0.0101141
-0.00922422
-0.00529927
-0.00533411
-0.00732751
-0.00728237
-0.0082052
-0.00910557
-0.00899515
-0.00688649
-0.00579188
-0.00572224
-0.00568617
-0.00568907
-0.0057326
-0.00781456
-0.00992915
-0.0100674
-0.013218
-0.0153683
-0.0135059
-0.0106188
-0.00869756
-0.00873583
-0.00973137
-0.0106861
-0.012606
-0.0125002
-0.0123806
-0.0122599
-0.0121512
-0.00906633
-0.0100147
-0.0100025
-0.00903239
-0.0121027
-0.0142082
-0.0123398
-0.00948602
-0.00863346
-0.0107688
-0.01088
-0.00995711
-0.0109936
-0.0109865
-0.00993748
-0.0098517
-0.0107381
-0.00960839
-0.00947558
-0.00835304
-0.00825313
-0.00918604
-0.00715878
-0.00717438
-0.00723176
-0.00632573
-0.00644754
-0.00658568
-0.00472697
-0.00485782
-0.00596565
-0.00103998
-7.33446e-005
-0.00306233
-0.00400803
-0.00491564
-0.00479393
-0.00365435
-0.00150993
-0.0023741
-0.00225949
-0.00117668
-0.00113304
-0.00513227
-0.00317394
-0.00325331
-0.00536196
-0.00448863
-0.00262014
-0.000742656
0.000156816
0.00108913
6.19236e-005
-0.000921171
0.000139255
0.000238519
0.000368236
0.000517125
0.00367219
0.00281998
0.00294772
0.00404463
0.00410304
0.00711914
0.00809334
0.00603006
0.0079373
0.00782602
0.00870906
0.00759976
0.00651073
0.00545262
0.00743322
0.00845677
0.00752341
0.00562905
0.00476584
0.00592307
0.0100884
0.00824864
0.00739124
0.00550513
0.00758217
0.0116181
0.0106126
0.0105695
0.010496
0.0094022
0.00830038
0.00820351
0.00912425
0.00807367
0.00806011
0.00908847
0.00715967
0.00927061
0.0114145
0.00958161
0.0117597
0.0119358
0.013097
0.0152321
0.0133322
0.0123918
0.0124094
0.0143875
0.0133327
0.0132548
0.0151658
0.0120789
0.00900722
0.00996223
0.0109533
0.0109864
0.0100637
0.0101829
0.00933784
0.007519
0.00771425
0.00791026
0.00909371
0.00825255
0.00937707
0.00746089
0.00550146
0.00650049
0.00346379
0.00440068
0.00532325
0.0032451
0.000179874
-0.00186001
0.00213573
0.00317431
-0.00174124
-0.00461252
-0.00544534
-0.00724902
-0.00903564
-0.00681878
-0.00761217
-0.00642857
-0.00827853
-0.0101694
-0.0101048
-0.0130837
-0.013101
-0.0111478
-0.013212
-0.01428
-0.0133376
-0.0133715
-0.0153705
-0.0153268
-0.0172367
-0.0171007
-0.0169235
-0.016714
-0.0164838
-0.0162467
-0.0180169
-0.0188081
-0.0166321
-0.0184969
-0.0204072
-0.019363
-0.0223597
-0.0253891
-0.0214395
-0.0154965
-0.0175453
-0.0185717
-0.019564
-0.0185135
-0.0194157
-0.0232704
-0.0230824
-0.0188598
-0.0176142
-0.0183592
-0.0191094
-0.0198791
-0.0216804
-0.0285227
-0.0274113
-0.0273466
-0.0253243
-0.0243359
-0.0253693
-0.0244108
-0.0244453
-0.0244588
-0.0274391
-0.0293774
-0.0262689
-0.025113
-0.0229135
-0.0236786
-0.0234198
-0.024151
-0.0238869
-0.0216417
-0.0214274
-0.0192531
-0.0191239
-0.0220404
-0.021999
-0.0219917
-0.0230072
-0.0230319
-0.022051
-0.0230503
-0.0260177
-0.0249439
-0.0218235
-0.0226556
-0.0214436
-0.0221956
-0.0239229
-0.0216396
-0.0203601
-0.0200987
-0.0178678
-0.0186768
-0.0185311
-0.0164319
-0.0153754
-0.0153538
-0.0153556
-0.0143673
-0.0153741
-0.0153619
-0.0163181
-0.0152332
-0.0141016
-0.015922
-0.014698
-0.0134372
-0.0141509
-0.0108526
-0.00955706
-0.00927859
-0.00903004
-0.0118214
-0.0116587
-0.00854356
-0.00847247
-0.0104378
-0.00842841
-0.00743035
-0.00842858
-0.0084084
-0.00835678
-0.0082637
-0.00712303
-0.00593318
-0.00769736
-0.0074233
-0.00312232
-0.00280817
-0.00349604
-0.003201
-0.00493647
-0.00571294
-0.00253671
0.000590764
-0.000327121
0.00171738
-0.00226434
-0.00625848
-0.00524993
-0.000223423
0.00183493
-0.00206422
-0.000914541
-0.000714356
0.000533207
0.00182044
0.000135713
0.000464566
0.00279128
0.00410046
0.00337839
0.00361431
0.00480162
0.00693859
0.00702852
0.0100793
0.00710274
0.00411311
0.00512604
0.00415716
0.00322043
0.00132671
-0.00051727
-0.000309543
-0.00205305
-0.00175547
0.000571656
0.00291401
0.00425575
0.00358093
0.00387502
0.00412643
0.00432768
0.00547617
0.00557447
0.00663006
0.00665467
0.00466308
0.00567171
0.00569722
0.00475476
0.00885657
0.00701076
0.00522027
0.00748266
0.00779047
0.00913184
0.00949153
0.0118525
0.0121973
0.0115102
0.010778
0.0119921
0.0141492
0.0142513
0.0143062
0.0123259
0.0143261
0.0153247
0.0123397
0.0123878
0.0134823
0.0126326
0.0128423
0.0111096
0.0144269
0.0177819
0.0171584
0.0175381
0.0199021
0.0192326
0.0165153
0.0167399
0.0139019
0.017003
0.0210513
0.0170598
0.0160455
0.0160277
0.0160264
0.01606
0.0141438
0.0152883
0.015498
0.0147712
0.0171
0.0174708
0.016866
0.0172651
0.0166471
0.0189926
0.0162853
0.0145142
0.0166743
0.0187674
0.0158021
0.0157926
0.0157576
0.0157184
0.013697
0.0117137
0.0127853
0.00992331
0.0111328
0.0104119
0.00575188
0.00713765
0.0105498
0.00996633
0.00736424
0.0077221
0.00802224
0.00925255
0.0104077
0.0114896
0.0165076
0.0174772
0.0164188
0.0173552
0.0193102
0.0193059
0.0193604
0.0224863
0.0256895
0.0299681
0.0293131
0.0327084
0.0381333
0.0415637
0.043975
0.0473437
0.0526507
0.0558826
0.059033
0.0601035
0.0651034
0.0660489
0.0589616
0.057866
0.0547879
0.0497515
0.0497774
0.0528807
0.0520692
0.0513425
0.0536916
0.0531003
0.053546
0.0550022
0.0554407
0.0508348
0.0471611
0.0484026
0.0505506
0.0536058
0.0565777
0.0604841
0.0613496
0.0612025
0.0610727
0.0609886
0.0619746
0.0630482
0.0622188
0.0584862
0.0568404
0.0602631
0.0597292
0.0592091
0.0576712
0.0550852
0.0554252
0.0586724
0.0568166
0.0548575
0.0508046
0.0486764
0.0484991
0.043304
0.042124
0.0429912
0.0429337
0.0429721
0.042118
0.0403724
0.0407255
0.0401577
0.0376414
0.0371435
0.0356284
0.0320621
0.0324148
0.0306645
0.0297991
0.0328175
0.0327302
0.0315579
0.0293296
0.02908
0.0288461
0.0286638
0.0265641
0.02457
0.0276943
0.0289387
0.0302927
0.0297349
0.029235
0.0337563
0.0322601
0.0287082
0.0280677
0.0313138
0.0344331
0.0314241
0.0322979
0.0350769
0.0307931
0.0284848
0.0301929
0.0309571
0.0308121
0.0307838
0.0308868
0.0321227
0.0314801
0.0319352
0.0324545
0.0319976
0.032521
0.0349831
0.0353475
0.0375872
0.0366869
0.0366447
0.0374726
0.0341954
0.0338483
0.0324735
0.0291166
0.0298214
0.0256263
0.01756
0.0116384
0.00286322
-0.00577822
-0.0133119
-0.0267746
-0.0382108
-0.0476678
-0.0631914
-0.0748213
-0.080587
-0.0865046
-0.0925755
-0.0977863
-0.0991096
-0.0965072
-0.0989332
-0.0993394
-0.0866792
-0.073912
-0.0690078
-0.0599505
-0.0417393
-0.0183882
0.00707519
0.0346117
0.0591746
0.0837137
0.11318
0.140533
0.174741
0.209787
0.246671
0.283407
0.308026
0.321566
0.332075
0.341604
0.353202
0.363912
0.367766
0.368784
0.367969
0.358308
0.335773
0.306322
0.271905
0.230468
0.187958
0.140329
0.0955474
0.0605942
0.0354683
0.0281866
0.0207824
0.0103004
-0.00920799
-0.0326905
-0.0530989
-0.0763931
-0.0935454
-0.107542
-0.118385
-0.140091
-0.156691
-0.167225
-0.174741
-0.179284
-0.195898
-0.20562
-0.211476
-0.217476
-0.219619
-0.222887
-0.227253
-0.236678
-0.251123
-0.260543
-0.266901
-0.274163
-0.282308
-0.291325
-0.297215
-0.298994
-0.305687
-0.309326
-0.310949
-0.313594
-0.311298
-0.31309
-0.31899
-0.317009
-0.318145
-0.318385
-0.318708
-0.322084
-0.322478
-0.327857
-0.333187
-0.335441
-0.333601
-0.324656
-0.315605
-0.307459
-0.298236
-0.285963
-0.27067
-0.25139
-0.233154
-0.217986
-0.201908
-0.188932
-0.176058
-0.16028
-0.14658
-0.135936
-0.121319
-0.107697
-0.096041
-0.0853231
-0.0745233
-0.0626287
-0.053636
-0.0445509
-0.0373884
-0.0291703
-0.0229242
-0.0176799
-0.013467
-0.00531227
0.0017636
0.00474725
0.00563383
0.00642741
0.0101408
0.0127944
0.015414
0.0180286
0.0196671
0.021356
0.0191168
0.0209635
0.0239025
0.0259309
0.0280376
0.0272039
0.0284053
0.0276141
0.0278016
0.0299418
0.0300127
0.0309993
0.0298943
0.0296991
0.0314235
0.0320849
0.0307064
0.0303146
0.0319374
0.0306007
0.0273266
0.0281308
0.0280217
0.0309995
0.0330561
0.0311758
0.0323369
0.0315137
0.027679
0.0318065
0.0318739
0.0288645
0.0287688
0.0305854
0.0273212
0.0259906
0.0266141
0.0272168
0.0308255
0.0294662
0.0261617
0.0249292
0.0257788
0.0277132
0.0277269
0.0258065
0.0209324
0.0210804
0.0252246
0.0253396
0.0224029
0.0203963
0.0203087
0.0211364
0.0218842
0.020564
0.0201941
0.0167974
0.015399
0.0200241
0.0216959
0.0214329
0.0212472
0.0221432
0.0221178
0.02116
0.0202524
0.022373
0.0234972
0.0236002
0.0216591
0.0196551
0.0225755
0.0224151
0.0211761
0.0218683
0.0205079
0.0171157
0.0187156
0.0193323
0.0189887
0.0167036
0.0154903
0.0163549
0.0162964
0.0183064
0.01937
0.0194671
0.0195746
0.0196682
0.0227251
0.020726
0.0206569
0.0225104
0.0222866
0.0209929
0.0246433
0.0252571
0.0208572
0.021467
0.0221096
0.0208046
0.0235668
0.0244045
0.0243188
0.0233035
0.0203454
0.0204259
0.021523
0.021613
0.0246731
0.0256836
0.0256292
0.0245009
0.0232964
0.0230208
0.0226859
0.0223091
0.0219119
0.0235176
0.0251495
0.0228281
0.0225696
0.0233838
0.0252741
0.0272365
0.0232602
0.0253284
0.0264199
0.0275119
0.0285811
0.0246067
0.0255715
0.0254646
0.0242817
0.024026
0.0247074
0.0273422
0.0329513
0.0325578
0.0271851
0.0288539
0.0295815
0.0313796
0.032253
0.0311997
0.0312102
0.0322693
0.0323572
0.0344515
0.0365292
0.036569
0.0335532
0.0344692
0.0353112
0.0340804
0.0357851
0.0354396
0.0350632
0.0356779
0.0343068
0.0349715
0.0366902
0.0364762
0.0363362
0.0342699
0.0342699
0.0373228
0.03641
0.0365101
0.0376001
0.0386583
0.037666
0.0366093
0.0364804
0.0352786
0.0360101
0.0356874
0.0363287
0.0369552
0.0355898
0.0342545
0.0329685
0.0337463
0.0345965
0.0345211
0.0355147
0.0335657
0.0326568
0.032767
0.0338736
0.0339544
0.0329897
0.0319641
0.0328681
0.0316989
0.0314609
0.030165
0.0298276
0.0294693
0.0271126
0.0277801
0.0274922
0.026265
0.026109
0.0260281
0.026019
0.0250717
0.0241703
0.0232947
0.0234222
0.0225301
0.0215974
0.0206072
0.018548
0.017415
0.0162105
0.0159437
0.01463
0.0132893
0.0139441
0.0136177
0.0123316
0.0121035
0.0129457
0.0128641
0.0118571
0.0119161
0.0120265
0.0121685
0.0123197
0.0114567
0.00955734
0.0086032
0.005581
0.001484
0.000312775
7.52543e-005
0.000786044
0.000464895
0.00113476
0.000819561
-0.000458149
0.00132066
0.00116976
0.00109619
0.00109958
-0.000827787
-0.00170032
-0.00453763
-0.00336259
-0.00419902
-0.0040695
-0.0049932
-0.00598407
-0.00604946
-0.00618937
-0.00539648
-0.00465683
-0.00395124
-0.00525723
-0.00655123
-0.00581074
-0.00401639
-0.00315383
-0.00421527
-0.00520023
-0.00611554
-0.0079746
-0.00679604
-0.00660186
-0.00741534
-0.00825897
-0.00915217
-0.0101094
-0.011139
-0.0102418
-0.0104118
-0.00963626
-0.0108971
-0.0131729
-0.0134406
-0.0136781
-0.0118658
-0.0119888
-0.0120384
-0.0110129
-0.0119175
-0.0127644
-0.013571
-0.0113583
-0.0121491
-0.0109656
-0.0118272
-0.0127493
-0.0117409
-0.0128043
-0.0129349
-0.0141215
-0.0143474
-0.015592
-0.0148328
-0.0160476
-0.0152166
-0.0153243
-0.0143609
-0.0143233
-0.0142155
-0.0150482
-0.0158376
-0.013604
-0.0123696
-0.0141565
-0.0129849
-0.0148707
-0.0158241
-0.018849
-0.0249423
-0.0220941
-0.0222883
-0.0215048
-0.0217209
-0.0209141
-0.0200638
-0.0201536
-0.0181729
-0.0171176
-0.0169909
-0.0188029
-0.0185696
-0.0193113
-0.0190504
-0.0188096
-0.0206092
-0.0204657
-0.0183898
-0.0203852
-0.0204489
-0.0205711
-0.0217359
-0.0219235
-0.0211117
-0.0222779
-0.0214018
-0.0214671
-0.0204629
-0.0193852
-0.0172367
-0.0180271
-0.0197722
-0.0174918
-0.0152081
-0.0169434
-0.0187182
-0.0195491
-0.019447
-0.0194159
-0.020453
-0.0175483
-0.0176862
-0.0188467
-0.0180078
-0.0161471
-0.0142441
-0.0142827
-0.0142521
-0.0131487
-0.0129755
-0.0127426
-0.0124655
-0.0111641
-0.00986034
-0.0085763
-0.00833195
-0.00814325
-0.00702059
-0.00796776
-0.0069816
-0.00405222
-0.00416399
-0.00629733
-0.0074306
-0.00754206
-0.00661195
-0.00562436
-0.00456893
-0.00444184
-0.00424626
-0.00399198
-0.00369443
-0.0043732
-0.00205005
0.0002533
-0.000482818
0.000725797
0.000868855
-5.74449e-005
-0.00105008
0.000900627
0.00181012
0.001698
-0.000414037
-0.00150429
-0.00155305
-0.00154448
-0.0014682
-0.00232038
-0.00210411
-0.00282908
-0.00151062
-0.000168181
0.00217658
0.0025018
0.000787438
0.00101727
0.000180576
0.00227329
0.00329842
0.000265607
0.000190132
0.00209168
0.00299245
0.000914837
0.00387917
0.00390193
0.00299394
0.00415926
0.00439492
0.00569114
0.00803228
0.00839836
0.00876686
0.00911498
0.00842186
0.00867069
0.0098504
0.00995681
0.00999296
0.00996885
0.0109006
0.00980861
0.00771591
0.0086456
0.00961888
0.00765286
0.00975874
0.00894084
0.0101961
0.0115142
0.0118788
0.0152689
0.0136609
0.014031
0.0133571
0.0126216
0.00981286
0.00892628
0.0059651
0.00494004
0.00486831
0.00477207
0.00267605
0.00360516
0.00258208
0.00462494
0.00574558
0.00594817
0.00622871
0.0065754
0.00696978
0.00838856
0.00880591
0.011196
0.0135356
0.0128064
0.0129966
0.0141024
0.0171288
0.0200884
0.0190009
0.0178906
0.0187841
0.0187081
0.0216864
0.024738
0.0248746
0.0280994
0.029407
0.0317838
0.0372089
0.042657
0.0451
0.0465098
0.0508615
0.0541356
0.0573203
0.0584125
0.0594182
0.059352
0.0592359
0.058097
0.055965
0.0548694
0.0538365
0.0538866
0.0560322
0.0562768
0.0536137
0.0510267
0.051492
0.0459802
0.0424591
0.0408969
0.0412659
0.0435451
0.046722
0.0517947
0.0557712
0.0596692
0.0615142
0.062337
0.0621706
0.0620471
0.0639948
0.0650353
0.0651813
0.0614351
0.0597881
0.0572221
0.0567109
0.0552228
0.0517235
0.0511794
0.0505613
0.0488471
0.0470235
0.0460882
0.0450496
0.0439261
0.0427447
0.043538
0.0423416
0.0401899
0.0401132
0.0411346
0.0412679
0.0405159
0.03887
0.0383111
0.0378114
0.0383372
0.038852
0.0383202
0.0387103
0.0369983
0.0351698
0.0382219
0.0381633
0.0370137
0.0348013
0.034561
0.0363304
0.0361466
0.0330422
0.0320418
0.0291603
0.0314007
0.0327544
0.0302014
0.0297124
0.0302514
0.0307794
0.0322583
0.0326544
0.0339417
0.0321047
0.0321395
0.0330551
0.034872
0.0336204
0.0333376
0.0330638
0.0328387
0.0326976
0.0316676
0.0307649
0.0309937
0.033345
0.0337978
0.0363209
0.034876
0.0324207
0.0329133
0.031317
0.032603
0.0337542
0.0347663
0.0356487
0.0354233
0.0351229
0.0347874
0.0314606
0.0271856
0.0210003
0.0179343
0.0130057
0.00721921
-0.0014345
-0.012978
-0.0254451
-0.0378774
-0.0503201
-0.0628179
-0.0764102
-0.0891276
-0.0969884
-0.101997
-0.105142
-0.102401
-0.102738
-0.105111
-0.104474
-0.0947818
-0.0849957
-0.0800852
-0.0680327
-0.0508348
-0.0285018
-0.00205755
0.0214631
0.041017
0.0645572
0.0890376
0.115418
0.149667
0.180769
0.213719
0.248529
0.266224
0.27084
0.278419
0.287007
0.297651
0.309392
0.319263
0.321284
0.32346
0.314783
0.292227
0.275755
0.241321
0.196875
0.160366
0.11775
0.0769945
0.0500805
0.0340059
0.0267855
0.0184491
0.00803728
-0.0114027
-0.0328225
-0.0551771
-0.0744288
-0.0875507
-0.101529
-0.112365
-0.135072
-0.153681
-0.160227
-0.168754
-0.177305
-0.187921
-0.196638
-0.208477
-0.215451
-0.217558
-0.219782
-0.225097
-0.234468
-0.241855
-0.25422
-0.262525
-0.26374
-0.267844
-0.277828
-0.284695
-0.288459
-0.293145
-0.293784
-0.295412
-0.294066
-0.296778
-0.297576
-0.301478
-0.306493
-0.303618
-0.302838
-0.301131
-0.305468
-0.308815
-0.31114
-0.313413
-0.318608
-0.323711
-0.319714
-0.31462
-0.306441
-0.297198
-0.288916
-0.278627
-0.26436
-0.246143
-0.230999
-0.217944
-0.204986
-0.191122
-0.172342
-0.155627
-0.141952
-0.131289
-0.117611
-0.104889
-0.0941021
-0.0812345
-0.0732783
-0.0652347
-0.0551132
-0.0459308
-0.03571
-0.0294767
-0.0232583
-0.0190804
-0.0139649
-0.0029272
0.00202481
0.00789132
0.0126804
0.0134073
0.0160925
0.0177603
0.0234364
0.0261454
0.0289083
0.0297409
0.0286515
0.025641
0.0237025
0.0238222
0.0249813
0.0261573
0.0273264
0.0304656
0.0305549
0.029579
0.0275285
0.0244011
0.0242014
0.0239409
0.0236366
0.0243095
0.0229823
0.0246774
0.0264149
0.0292107
0.031075
0.0310109
0.0320149
0.0320765
0.0351802
0.0363062
0.034433
0.0355386
0.0356034
0.0366118
0.0365536
0.0324249
0.0302282
0.0309726
0.0296726
0.031347
0.0300166
0.0297026
0.0314242
0.034197
0.0360316
0.0359323
0.0338967
0.029916
0.0289759
0.0270585
0.0261439
0.0272119
0.0262444
0.028227
0.02915
0.0290097
0.0298082
0.0305535
0.0282585
0.0259395
0.0276147
0.0253029
0.024021
0.0237829
0.0205981
0.0224706
0.020399
0.0203765
0.0203915
0.022429
0.024472
0.0245034
0.0275067
0.0304688
0.0303803
0.0312365
0.0320379
0.0317903
0.0305038
0.030192
0.0298709
0.029557
0.026266
0.0230112
0.0228022
0.0226444
0.0215382
0.0214791
0.0204583
0.0214631
0.0224786
0.0214889
0.0214786
0.020434
0.0233449
0.0242053
0.0240141
0.0247746
0.0234948
0.0221862
0.0218632
0.020541
0.0212351
0.0209593
0.0197244
0.0205373
0.0174003
0.0183111
0.0222627
0.0222446
0.0232432
0.0232432
0.0262293
0.0281874
0.0261059
0.0259769
0.0277967
0.0275668
0.0242931
0.0269855
0.0286577
0.0273249
0.0280029
0.0257064
0.0234477
0.0262354
0.027074
0.0259632
0.0248976
0.0248675
0.0268599
0.0268597
0.0248508
0.0278179
0.0317481
0.0316322
0.0334648
0.0372457
0.0379795
0.0376752
0.0353451
0.0360041
0.0366682
0.034353
0.0310723
0.0258363
0.0256512
0.0255188
0.0264361
0.0273954
0.0263852
0.0273908
0.0273959
0.0253841
0.0263404
0.0272526
0.0261128
0.0279176
0.0296691
0.0313743
0.0320447
0.0316951
0.0313422
0.0330031
0.0356942
0.040429
0.0422174
0.0410639
0.0419675
0.0419218
0.0389156
0.0339335
0.0309579
0.0309707
0.0329548
0.0358964
0.0377855
0.0406171
0.0403916
0.0371145
0.031796
0.0314499
0.0320933
0.0317444
0.0314207
0.0331378
0.0339072
0.034736
0.0306254
0.0305709
0.0335627
0.0335869
0.0336264
0.0336626
0.0346771
0.0346534
0.0365787
0.036445
0.0362497
0.0389963
0.0396938
0.0353558
0.0339991
0.0306427
0.0293056
0.0330055
0.0287568
0.0275693
0.0324469
0.0333881
0.0343851
0.0354246
0.0334892
0.0315589
0.0306129
0.0286317
0.0285993
0.0285045
0.0303419
0.0301131
0.0278256
0.0294929
0.030133
0.0297668
0.029416
0.031101
0.0278391
0.0246426
0.0275176
0.0274637
0.0244739
0.0205347
0.0186278
0.0157316
0.0128237
0.0118826
0.0128903
0.0138335
0.0147054
0.0155059
0.0132415
0.00992516
0.00757451
0.00721086
0.00785707
0.0085354
0.00626522
0.00606112
0.00693161
0.00687833
0.00889574
0.0119717
0.0110885
0.0102243
0.00935527
0.00745786
0.00651125
0.00549929
0.00341209
0.00224704
-0.00099093
-0.00328975
-0.0026312
-0.00199256
0.00165124
0.00132507
-0.00194907
-0.00215415
-0.00227955
-0.00332217
-0.00328682
-0.00318573
-0.00603753
-0.00686549
-0.00769519
-0.00755198
-0.00745858
-0.0104329
-0.0124866
-0.00962316
-0.00683801
-0.00711871
-0.00944651
-0.0127981
-0.0141478
-0.0164698
-0.0187405
-0.0149412
-0.0150592
-0.01409
-0.0130371
-0.0149122
-0.0157341
-0.0155268
-0.014317
-0.0141315
-0.0149952
-0.014928
-0.0169434
-0.0180467
-0.0182348
-0.017496
-0.0188113
-0.0181562
-0.0155031
-0.0148237
-0.0160921
-0.0172875
-0.0153956
-0.0134106
-0.0133353
-0.0181817
-0.0199692
-0.0207231
-0.0204717
-0.0152438
-0.0140655
-0.0149584
-0.0199376
-0.0230098
-0.0241727
-0.0224148
-0.0217164
-0.021052
-0.0223924
-0.0227079
-0.0209709
-0.0191583
-0.0182544
-0.0192521
-0.0181539
-0.0189717
-0.0187252
-0.0174407
-0.0181479
-0.0178776
-0.0156582
-0.0175133
-0.0214595
-0.0215043
-0.0216456
-0.0178714
-0.0161611
-0.0124877
-0.00982049
-0.00812767
-0.00738005
-0.00755365
-0.0086321
-0.00960823
-0.00748464
-0.00927349
-0.0149956
-0.0166782
-0.0173525
-0.0180499
-0.0197996
-0.0176256
-0.0155442
-0.0155624
-0.016678
-0.0148788
-0.0111445
-0.0104481
-0.0107592
-0.0110465
-0.0112811
-0.0124391
-0.0105038
-0.0114675
-0.0113319
-0.0091084
-0.0078165
-0.00648222
-0.00713562
-0.009808
-0.00752874
-0.00632228
-0.00820596
-0.00618837
-0.00526841
-0.00543546
-0.00467045
-0.00394767
-0.00523726
-0.00350809
-0.00673078
-0.0108806
-0.00893985
-0.00689899
-0.00475792
-0.00752618
-0.0102222
-0.00887121
-0.00850284
-0.00414812
-0.000836582
-0.00359371
-0.00243859
-0.00438189
-0.00942491
-0.00955935
-0.00976784
-0.00902558
-0.00830279
-0.00556755
-0.00378888
-0.000939815
-5.03038e-008
0.001042
0.00118805
0.00142979
0.0017497
0.0021227
0.00051859
0.00290495
0.00625045
0.00752784
0.00571629
0.0038034
0.000786524
0.00167321
0.00148062
0.00223382
0.00396334
0.00270221
0.00648269
0.00933336
0.0112761
0.014324
0.0144798
0.0137358
0.0100742
0.0104693
0.00988988
0.0073023
0.00967375
0.0109756
0.0121861
0.0122923
0.0142916
0.0141917
0.01401
0.013772
0.0105084
0.0102527
0.0100379
0.00489272
0.000839512
-0.00210842
-0.00294768
-0.00268509
-0.00233723
-0.00392889
-0.00149077
0.00194361
0.00234107
0.000671627
-0.00208855
-0.000954663
-0.00293163
-0.00401369
-0.00418484
0.0025799
0.00631216
0.00704685
0.00881864
0.0146588
0.0175924
0.0186353
0.0187927
0.0220589
0.0254176
0.0238435
0.0263045
0.0307652
0.0391905
0.0425486
0.046814
0.0479698
0.0470095
0.0479378
0.0497701
0.0505316
0.0502541
0.0519737
0.0517271
0.0545478
0.0554633
0.0544919
0.0546412
0.0509069
0.0512734
0.0517153
0.0481999
0.0516902
0.0531483
0.0525394
0.0508348
0.0470147
0.04707
0.0520044
0.0588332
0.0605823
0.0652853
0.0669803
0.0637061
0.0674987
0.0663878
0.069394
0.0705267
0.0697833
0.068149
0.0635981
0.0600969
0.0546067
0.0540875
0.0485023
0.0438201
0.0450194
0.0450903
0.0440352
0.0418688
0.040616
0.0373105
0.0349905
0.0316961
0.0294647
0.0323279
0.0303085
0.0274177
0.0256542
0.0250046
0.0214444
0.0219402
0.0204535
0.0199437
0.0203724
0.0217072
0.0269245
0.0280122
0.0309703
0.0318112
0.0305583
0.0302438
0.0299061
0.0305858
0.0323219
0.0331483
0.0330905
0.0321625
0.0303661
0.0316904
0.031113
0.0296018
0.0291184
0.0276213
0.0290703
0.0324302
0.0346742
0.0337865
0.0307633
0.0306137
0.0273586
0.0220293
0.024664
0.027305
0.0299944
0.0297698
0.0266603
0.0286842
0.0288471
0.0291411
0.0295458
0.0300299
0.0315542
0.0330752
0.0345498
0.0309385
0.0302097
0.0303427
0.0293303
0.0241787
0.0269077
0.0275489
0.0251424
0.0237332
0.0223666
0.0210842
0.0199197
0.0178955
0.0140206
0.00628934
-0.00431818
-0.0118341
-0.0222997
-0.0337613
-0.047266
-0.0608571
-0.0715699
-0.0794277
-0.0884397
-0.0966003
-0.10289
-0.106275
-0.106714
-0.113161
-0.117566
-0.114887
-0.102088
-0.0911445
-0.0900456
-0.0747972
-0.0544191
-0.0319438
-0.00441333
0.0201244
0.0406201
0.0690276
0.0953091
0.128439
0.167406
0.198215
0.239887
0.276454
0.291961
0.298456
0.310987
0.320601
0.330336
0.344221
0.35527
0.359481
0.362838
0.35231
0.334853
0.318417
0.279948
0.236395
0.201713
0.157872
0.113854
0.0816624
0.0593158
0.0458504
0.0343144
0.0187629
0.000252136
-0.0221669
-0.0504531
-0.0715794
-0.0845347
-0.0993248
-0.109972
-0.134513
-0.157997
-0.165476
-0.172004
-0.18163
-0.19439
-0.207311
-0.213402
-0.215653
-0.221042
-0.227529
-0.234068
-0.241607
-0.245096
-0.251487
-0.259745
-0.262848
-0.26979
-0.27858
-0.285243
-0.292818
-0.299351
-0.297892
-0.29649
-0.296187
-0.301018
-0.306002
-0.307144
-0.312434
-0.315846
-0.315344
-0.313882
-0.310411
-0.309883
-0.315256
-0.317499
-0.322594
-0.329537
-0.335343
-0.333035
-0.326651
-0.322234
-0.315832
-0.304489
-0.291243
-0.276126
-0.255152
-0.237325
-0.221634
-0.206053
-0.19155
-0.175082
-0.160606
-0.148079
-0.138462
-0.123729
-0.10786
-0.0968518
-0.089714
-0.0774681
-0.0651462
-0.0527872
-0.0424332
-0.034126
-0.0239029
-0.019793
-0.0128146
-0.00197363
0.00373749
0.00533817
0.00685793
0.00833366
0.0108063
0.0153169
0.0179029
0.0225942
0.0264107
0.0263598
0.0294365
0.031623
0.0338915
0.0352059
0.0295259
0.0298101
0.0310209
0.030128
0.0321108
0.0309608
0.0286818
0.02829
0.0278122
0.0282833
0.028743
0.0302321
0.031788
0.034442
0.0382154
0.0381182
0.0381474
0.0372877
0.0365131
0.0387894
0.0390775
0.0393373
0.0355314
0.0356284
0.0346067
0.034456
0.0351784
0.0337883
0.0333106
0.0307788
0.029231
0.0327069
0.0312439
0.0298732
0.0306169
0.0304856
0.0324783
0.0325815
0.0297711
0.0300144
0.0302736
0.0285093
0.0286845
0.024768
0.0237373
0.0245813
0.0243008
0.0239089
0.0274294
0.0278944
0.0293413
0.0328091
0.0313345
0.0329482
0.0376722
0.036518
0.0334844
0.0305587
0.0277173
0.0279287
0.0251567
0.0203633
0.0225127
0.0205753
0.0175298
0.0153654
0.0110828
0.0136943
0.0182226
0.0196985
0.0251574
0.0296363
0.0291695
0.0317858
0.031505
0.0283369
0.0262799
0.0243214
0.0244396
0.0236056
0.0247862
0.0269473
0.030057
0.028089
0.0310243
0.0318539
0.0335787
0.0342098
0.030767
0.0302769
0.0287701
0.0302788
0.0278331
0.0264583
0.0281728
0.028986
0.0298981
0.0298994
0.0299716
0.0310902
0.033226
0.0333487
0.0354296
0.0354441
0.0343742
0.0332103
0.0319516
0.0296065
0.0291918
0.0307307
0.0282511
0.0277819
0.0283511
0.0319826
0.0306944
0.0294962
0.0333888
0.0343645
0.0364075
0.0364957
0.0366025
0.0326997
0.0307602
0.0297604
0.0296835
0.0305201
0.0332696
0.0339399
0.0345467
0.0361114
0.0346594
0.0332175
0.0328108
0.035461
0.0361844
0.0339895
0.0338769
0.031839
0.0298611
0.0319231
0.032001
0.03207
0.0351063
0.0360898
0.0370056
0.0388457
0.0396095
0.0413037
0.0419418
0.0385424
0.0371273
0.0367197
0.0363419
0.0380133
0.0357481
0.0335545
0.0324335
0.0313791
0.0323795
0.0364175
0.039473
0.0415243
0.0425505
0.043533
0.0454577
0.0473161
0.0471063
0.0468327
0.0435059
0.0421412
0.0427579
0.0413768
0.0390185
0.0407015
0.0404401
0.0392437
0.0381149
0.0380504
0.0370404
0.0370703
0.0381217
0.0371746
0.0372087
0.0372057
0.0371511
0.0380354
0.0388552
0.0386134
0.0393184
0.0399842
0.0376281
0.0362697
0.0359284
0.0356224
0.0333664
0.0301702
0.0290379
0.0299679
0.031953
0.0309807
0.0290346
0.0280959
0.0291452
0.0291646
0.0291391
0.030058
0.026916
0.0257135
0.0264569
0.0221576
0.017831
0.0164952
0.0181693
0.0208721
0.0196195
0.0214231
0.0212896
0.0202193
0.0222068
0.0222413
0.0213074
0.0183868
0.01546
0.016508
0.018515
0.0164689
0.014363
0.0131961
0.0109732
0.00870473
0.00840546
0.00709344
0.005788
0.00750796
0.00426981
0.00208595
0.000963594
-0.00109579
-0.00209667
-0.00104893
3.312e-005
-0.001868
-0.00177136
-0.00169566
-0.000657399
-0.00166936
-0.00273947
-0.00386998
-0.00605729
-0.00829223
-0.00956094
-0.0098461
-0.0111286
-0.0123895
-0.0136117
-0.0147819
-0.0138913
-0.0139371
-0.0159222
-0.0138555
-0.0137506
-0.0146246
-0.0144969
-0.0153867
-0.0153115
-0.0172854
-0.0153176
-0.0154115
-0.0175642
-0.0207676
-0.0220083
-0.021269
-0.0225303
-0.0227725
-0.0219775
-0.0241307
-0.0232223
-0.0222484
-0.0212109
-0.0191182
-0.0189835
-0.0208245
-0.0196609
-0.0175129
-0.019399
-0.0203345
-0.0193297
-0.020389
-0.0205105
-0.0226858
-0.0219015
-0.0211397
-0.0223802
-0.0226023
-0.023787
-0.0229188
-0.0209868
-0.0219864
-0.0209194
-0.0207941
-0.0206244
-0.0204283
-0.0202265
-0.02104
-0.0208884
-0.0197877
-0.0177488
-0.0167762
-0.015868
-0.015016
-0.0172061
-0.0144202
-0.0156376
-0.014837
-0.0109985
-0.0111059
-0.0111478
-0.0131196
-0.013023
-0.0128664
-0.0146639
-0.0164338
-0.0171972
-0.0169754
-0.0147881
-0.0146514
-0.0155764
-0.0165682
-0.0146253
-0.0147395
-0.012897
-0.0140798
-0.0122672
-0.011438
-0.0105724
-0.00965419
-0.00967193
-0.00962045
-0.00850107
-0.00932154
-0.00909527
-0.00784001
-0.00757601
-0.0063242
-0.00710413
-0.00593215
-0.00381967
-0.00377219
-0.00378885
-0.00486255
-0.00498063
-0.00512598
-0.00427876
-0.00441826
-0.00652503
-0.00558272
-0.00557951
-0.00550929
-0.00837235
-0.0041752
-0.00392982
-0.00365269
-0.00436327
-0.00708213
-0.00382886
-0.00261999
-0.00246761
-0.00237831
-0.00335257
-0.00338466
-0.00346318
-0.00357212
-0.00469248
-0.0048041
-0.0048875
-0.00392575
-0.00490615
-0.00482143
-0.00367044
-0.00145812
-0.00219518
-0.00189711
-0.000582633
-0.000271867
1.55525e-005
-0.000737686
0.000455139
0.000586095
-0.000346715
-0.00133902
-0.000380717
0.00054327
-0.000548592
0.00036375
0.0013001
0.00227812
0.00231154
-0.000591198
-0.000427785
0.00379807
0.00607701
0.00639467
0.00573295
0.00407172
0.00539096
0.00567273
0.00590285
0.00807221
0.0071777
0.00722234
0.00821508
0.00817
0.00810486
0.00803942
0.00799356
0.00798538
0.00602945
0.00513536
0.00430694
0.00354189
0.00283201
0.00016392
0.0015204
0.00288218
0.0052297
0.00454484
-0.000187582
0.00302176
0.00616809
0.00625276
0.0062829
0.00727079
0.00723278
0.00718771
0.00715512
0.00715348
0.00819845
0.00830143
0.00646839
0.00569932
0.00498828
0.00232402
0.00169096
7.07723e-005
0.00044407
-0.00120776
-0.000900904
-0.000647523
-0.00145472
-0.005324
-0.00925119
-0.00522657
-0.00123546
-0.00326001
-0.00128106
-0.000279751
-0.00123933
0.00085332
0.00300654
0.0102233
0.0145008
0.0158305
0.0161989
0.0205887
0.022981
0.0263565
0.0306978
0.0309905
0.0332248
0.0343964
0.040507
0.0445644
0.0505812
0.0575742
0.0565622
0.0525642
0.0495973
0.0476762
0.0488114
0.0500085
0.0512677
0.0505835
0.0479451
0.0463375
0.0467427
0.049142
0.0495172
0.0478521
0.0471342
0.0423555
0.0395136
0.0386117
0.037659
0.0436696
0.0456611
0.0486532
0.0506654
0.0497152
0.0498168
0.0539795
0.0572074
0.0574985
0.0608449
0.0622334
0.0606472
0.0590665
0.0534711
0.0508418
0.052163
0.0514236
0.0486184
0.0457481
0.0428195
0.0428449
0.0418411
0.0378276
0.0338249
0.0328522
0.0329264
0.0340601
0.0342605
0.0335284
0.0338582
0.0332386
0.0316531
0.0300822
0.0295044
0.0268993
0.0292486
0.0275384
0.0227604
0.0219122
0.0209982
0.0240294
0.0260221
0.0249963
0.0229734
0.0199748
0.0220196
0.0241229
0.0252948
0.0235385
0.0238504
0.0252205
0.0266331
0.0290686
0.0295051
0.0289201
0.0292929
0.0276069
0.0278505
0.0350191
0.0381154
0.0341486
0.0331338
0.0330905
0.032041
0.0320087
0.0330153
0.0320791
0.0302132
0.0304239
0.0287103
0.0310644
0.0334721
0.0319136
0.0323657
0.0328039
0.0332048
0.033548
0.0338184
0.0340076
0.0331146
0.0341461
0.0351162
0.0350449
0.033956
0.0328754
0.0288283
0.027837
0.0239186
0.0200835
0.0183346
0.0126662
0.00606505
-0.00348881
-0.0150204
-0.0275571
-0.0391264
-0.0527527
-0.0654554
-0.0762465
-0.0871299
-0.0921002
-0.103144
-0.109241
-0.110364
-0.108486
-0.108577
-0.108612
-0.103571
-0.0924397
-0.0832147
-0.0719006
-0.0515112
-0.0290671
-0.00459493
0.026876
0.0543159
0.0776973
0.104997
0.136201
0.172303
0.209306
0.245224
0.28008
0.308901
0.322718
0.332561
0.347459
0.359435
0.369507
0.374683
0.37596
0.378329
0.37577
0.356255
0.325753
0.29123
0.242652
0.19699
0.157224
0.113345
0.0763539
0.0462639
0.0300988
0.0258906
0.0186761
-0.00350809
-0.0286302
-0.0506659
-0.0766002
-0.094429
-0.104158
-0.115805
-0.135392
-0.159952
-0.170517
-0.17812
-0.189789
-0.196543
-0.204395
-0.211346
-0.219388
-0.224504
-0.230668
-0.234852
-0.238027
-0.246162
-0.255234
-0.266227
-0.271133
-0.275951
-0.285693
-0.292374
-0.298019
-0.299654
-0.304307
-0.309002
-0.308759
-0.311593
-0.312509
-0.316505
-0.32057
-0.318688
-0.319838
-0.318993
-0.32213
-0.322228
-0.324267
-0.327239
-0.329138
-0.332969
-0.328743
-0.323476
-0.314187
-0.301897
-0.289629
-0.278401
-0.264227
-0.247116
-0.232073
-0.214092
-0.201166
-0.187279
-0.171415
-0.156554
-0.143678
-0.131768
-0.121813
-0.109803
-0.0977362
-0.0896142
-0.0764449
-0.0642403
-0.0550157
-0.0427878
-0.0355737
-0.0273888
-0.0222459
-0.0141537
-0.0101159
-0.0061314
-0.00119411
0.00370631
0.0075834
0.00645245
0.00932894
0.0112274
0.01316
0.0181355
0.0211585
0.0222288
0.0223418
0.0244886
0.0266571
0.0258336
0.0280033
0.0291526
0.0272696
0.0273454
0.0273751
0.026358
0.0272979
0.0292023
0.030082
0.0299497
0.030819
0.0307028
0.0306124
0.0315564
0.03454
0.0345645
0.0306273
0.0307218
0.0338386
0.0339666
0.0350936
0.0342077
0.033298
0.0333561
0.0323763
0.0333568
0.0352993
0.0322087
0.029093
0.0299617
0.0288261
0.0286974
0.0285859
0.0265003
0.0264462
0.0254267
0.0284412
0.0314864
0.0325559
0.0316411
0.0297317
0.0298166
0.0278858
0.0289302
0.0289434
0.0289219
0.0258652
0.0257758
0.0266593
0.0255238
0.0263789
0.0282349
0.028102
0.024989
0.0269025
0.0268467
0.0258228
0.0288291
0.0288608
0.0279109
0.0289706
0.02903
0.0280795
0.0301102
0.0281151
0.0250892
0.0230304
0.0229397
0.0218209
0.0216807
0.0235274
0.0233707
0.0222204
0.0190853
0.0169726
0.0168873
0.018832
0.0198065
0.0168076
0.0138294
0.018864
0.0199027
0.0169362
0.0189555
0.0199529
0.0219229
0.0228624
0.020771
0.019651
0.0185071
0.0193465
0.0201777
0.0190103
0.0168533
0.0197149
0.0196015
0.0185173
0.0194636
0.0224387
0.0244386
0.0224566
0.0194839
0.0195107
0.0225275
0.0215256
0.0214979
0.0234398
0.0243494
0.025228
0.0230794
0.02291
0.0247283
0.0265439
0.0243668
0.024206
0.0250691
0.0259615
0.0238859
0.0218418
0.0228255
0.023831
0.0268504
0.0268742
0.0258923
0.0268952
0.0288745
0.0288242
0.0287408
0.0286239
0.0274759
0.0293026
0.032112
0.0359141
0.0357196
0.0335385
0.0333797
0.0312498
0.034153
0.0360906
0.0370605
0.0370576
0.0380742
0.0391005
0.039126
0.0411398
0.0411323
0.0410956
0.0400246
0.0379171
0.0387745
0.0386015
0.0404061
0.0421982
0.0399892
0.0377905
0.0396124
0.0394638
0.0403506
0.0372756
0.0392377
0.0402324
0.0382523
0.0392871
0.0413253
0.041355
0.0383649
0.0403452
0.0392893
0.0371935
0.0390584
0.0408881
0.0416905
0.040476
0.0382565
0.0370445
0.0358521
0.0376894
0.0375644
0.0384811
0.0384398
0.0384369
0.0394648
0.0405132
0.0415695
0.0386203
0.0406525
0.0416549
0.040619
0.0395397
0.0394161
0.041252
0.0390548
0.0368352
0.0376063
0.0393825
0.0381778
0.0330043
0.0308714
0.0337846
0.0317454
0.0347507
0.0337933
0.0318622
0.0339435
0.0320224
0.0330839
0.0321146
0.031104
0.0300454
0.0249366
0.0237804
0.0275843
0.0273603
0.0261229
0.0298885
0.0256731
0.0244911
0.0243538
0.0232684
0.0212372
0.0202572
0.0183205
0.0164151
0.0155258
0.0126359
0.0127285
0.0137887
0.0118044
0.0117681
0.00967695
0.00653352
0.00734552
0.00712521
0.00688821
0.00365186
0.00343354
0.00324922
0.00411182
0.00402996
0.00300697
0.00404054
0.00312294
0.00224172
0.00338084
0.00352235
0.000647925
0.00374071
0.00378713
0.00277806
0.000709645
-0.000416229
-0.00159195
-0.00280488
-0.00403858
-0.00127423
-0.00549257
-0.008676
-0.00681005
-0.00488458
-0.00389497
-0.00484282
-0.00773593
-0.00958755
-0.00541483
-0.00623714
-0.00707451
-0.00494562
-0.00686588
-0.00784605
-0.00889106
-0.0069994
-0.00616312
-0.00736875
-0.00659858
-0.00883235
-0.00804918
-0.00822952
-0.00835708
-0.00942054
-0.0124147
-0.0123411
-0.0122075
-0.0130275
-0.0118191
-0.0116032
-0.00940128
-0.00823353
-0.0141171
-0.0170644
-0.0130816
-0.0131675
-0.0153145
-0.0185087
-0.0197317
-0.0179619
-0.0181764
-0.0193538
-0.0194758
-0.0205295
-0.0215084
-0.0214132
-0.0202514
-0.0200371
-0.0197896
-0.0205313
-0.0192858
-0.0210757
-0.0209201
-0.0178327
-0.0198206
-0.0228836
-0.0220143
-0.0211981
-0.0214151
-0.0196419
-0.0208537
-0.0220271
-0.0221422
-0.0221844
-0.0241459
-0.024027
-0.0248353
-0.0255855
-0.0232981
-0.0229969
-0.0227072
-0.0204535
-0.0222565
-0.0221318
-0.0220879
-0.0241254
-0.0222368
-0.0204073
-0.023616
-0.0238382
-0.0240476
-0.0222186
-0.0213291
-0.0233626
-0.0213099
-0.01917
-0.01995
-0.0196652
-0.0183369
-0.0199908
-0.0216546
-0.0193549
-0.0171148
-0.0179514
-0.0218747
-0.0188863
-0.0189788
-0.0181367
-0.0183381
-0.0185563
-0.0167631
-0.0179308
-0.0190355
-0.018059
-0.0169908
-0.011829
-0.0135806
-0.0172615
-0.0138942
-0.0105059
-0.00912577
-0.00778225
-0.00850044
-0.0112996
-0.0111913
-0.0121778
-0.011252
-0.00939802
-0.0115926
-0.00780767
-0.0100127
-0.00917793
-0.0092773
-0.0102908
-0.00820678
-0.00902262
-0.00774555
-0.00539171
-0.00298467
-0.000553207
-0.00212868
-0.00274204
-0.00442074
-0.0021858
-0.00204971
-0.00401531
-0.00107538
0.000786838
0.00259599
0.00238208
-0.000822534
1.37878e-005
0.000919085
-8.50213e-005
1.43984e-005
0.000220345
-0.0024745
-0.00108713
0.00135761
-0.00217077
-0.000705577
0.000720503
7.85846e-005
0.000346273
-0.000490081
0.000566053
0.00352186
0.00439451
0.00320934
0.00199735
0.000792379
0.000627834
0.00253358
0.004533
0.00464061
0.00486042
0.0041856
0.00259902
0.005075
0.00558188
0.00708492
0.00854969
0.00894535
0.00724761
0.00644111
0.00552108
0.00449385
0.00537637
0.00419459
0.0029809
0.00677111
0.00660106
0.00350283
0.00250154
0.00361314
0.00384288
0.0041846
0.00562128
0.00512663
0.00866763
0.0102078
0.00871033
0.006142
0.00547608
0.00569546
0.00579424
0.00777843
0.00466527
-0.00151861
0.00126052
0.00104051
-0.00314055
-0.00324827
-0.00425507
-0.00514292
-0.0029052
-0.000547297
-0.00108633
0.00245036
0.00202791
-0.000392914
-0.000851875
0.000614841
0.000978243
0.00521938
0.00533125
0.00431933
0.00920126
0.0100054
0.00876768
0.00952844
0.00932833
0.0132046
0.0141875
0.0172971
0.0235411
0.0239146
0.0273995
0.0299668
0.0335795
0.0391958
0.0417732
0.048273
0.0496636
0.0509238
0.055045
0.0580322
0.0619037
0.060689
0.0594262
0.0571584
0.0519292
0.0507791
0.0497412
0.0498384
0.0510806
0.0504638
0.0549702
0.0565702
0.0572244
0.0568877
0.0545136
0.0520585
0.0494862
0.0467717
0.0439035
0.0488855
0.0537364
0.0564882
0.0601828
0.0568677
0.0575916
0.0583996
0.0583294
0.0574067
0.057643
0.0580347
0.0585628
0.062195
0.0598886
0.0555944
0.0552613
0.0558419
0.0552971
0.0535996
0.0527365
0.0507114
0.0465432
0.0442651
0.0409212
0.0365623
0.0352411
0.0370071
0.0349019
0.0329546
0.031179
0.0315723
0.0331152
0.0327735
0.0335014
0.032246
0.029952
0.0295673
0.0260482
0.024364
0.0244996
0.0264578
0.0262587
0.0249381
0.0255436
0.0251306
0.0217564
0.0214749
0.0263316
0.0253587
0.0235719
0.0219684
0.0215275
0.0222124
0.0209737
0.0217542
0.0244942
0.028138
0.0276384
0.0269619
0.0270919
0.0260303
0.0267981
0.0254326
0.0249847
0.0235135
0.0220808
0.0237452
0.0305563
0.0295499
0.0267437
0.028136
0.0297053
0.032413
0.0322063
0.0340236
0.0348005
0.0324756
0.0309971
0.0303275
0.033448
0.0353603
0.0340863
0.0346664
0.0331551
0.0306165
0.0291173
0.0267211
0.0254817
0.0214379
0.0146095
0.00599499
-0.000428148
-0.00770123
-0.0178806
-0.0290322
-0.0412254
-0.0535258
-0.0649891
-0.0746553
-0.0845446
-0.0906556
-0.0959649
-0.10143
-0.101992
-0.101585
-0.103136
-0.102579
-0.0948573
-0.0819306
-0.074778
-0.0684014
-0.048825
-0.0240922
-0.000261948
0.0265968
0.0514118
0.0751139
0.103645
0.130962
0.167044
0.203893
0.238533
0.27601
0.302383
0.312724
0.323105
0.333595
0.343254
0.353125
0.358232
0.359575
0.360132
0.356861
0.337703
0.307585
0.27343
0.229165
0.186726
0.144066
0.09716
0.0630077
0.0376331
0.0270834
0.0214239
0.0117307
-0.00691774
-0.0314488
-0.050803
-0.073939
-0.0898375
-0.101503
-0.114963
-0.132266
-0.149474
-0.158661
-0.167901
-0.176262
-0.187799
-0.19655
-0.204533
-0.21174
-0.215143
-0.219694
-0.22533
-0.233983
-0.244581
-0.257061
-0.264372
-0.270478
-0.277366
-0.290044
-0.297541
-0.294903
-0.29519
-0.298468
-0.301803
-0.305257
-0.304878
-0.306699
-0.311731
-0.310968
-0.31238
-0.312921
-0.316536
-0.319158
-0.319725
-0.322177
-0.327469
-0.332571
-0.329472
-0.32418
-0.315723
-0.304144
-0.292498
-0.281847
-0.268253
-0.250772
-0.233449
-0.215314
-0.201378
-0.189633
-0.173054
-0.158599
-0.145214
-0.133838
-0.122412
-0.107879
-0.0971944
-0.0863283
-0.0742684
-0.0630213
-0.0546118
-0.0440809
-0.0354809
-0.0278713
-0.0203121
-0.0148588
-0.00755642
-0.00343533
0.000491524
0.00622999
0.00880411
0.0112537
0.0106301
0.00999185
0.0123983
0.0149047
0.0155562
0.0193839
0.0214017
0.0226045
0.0229695
0.0244577
0.025018
0.0275924
0.0291215
0.0295503
0.0308332
0.030939
0.0308533
0.0325804
0.0321426
0.0315782
0.0319374
0.031278
0.030659
0.0331358
0.033754
0.0335456
0.0335254
0.0316896
0.0310164
0.031468
0.0309948
0.0315393
0.0320428
0.0334501
0.0337157
0.0328074
0.03171
0.0324264
0.0319775
0.0314003
0.030744
0.0290652
0.0304227
0.0318717
0.0304583
0.0302151
0.0291579
0.0282842
0.0305738
0.0279904
0.0274855
0.0300026
0.0304833
0.0308727
0.0301245
0.0282058
0.0291
0.0298087
0.0273515
0.0267638
0.0260936
0.025397
0.0247323
0.0241546
0.0247106
0.025434
0.0243418
0.0224332
0.0226892
0.0200748
0.0195424
0.0210363
0.0194983
0.0188733
0.0181145
0.0191881
0.0200765
0.0187801
0.0173171
0.0167216
0.0150406
0.0143291
0.0146451
0.014044
0.0125727
0.0112656
0.012141
0.0121994
0.0114236
0.0127801
0.0132226
0.0146963
0.0131435
0.0135087
0.0117444
0.0108155
0.0097029
0.0114053
0.0129395
0.0143386
0.0146487
0.0139245
0.0152237
0.0156017
0.0171063
0.0187729
0.0186208
0.0176518
0.0188497
0.015182
0.013603
0.0160585
0.0164911
0.0168459
0.0160752
0.0171436
0.0170315
0.0197367
0.0182746
0.0176769
0.0189881
0.0192617
0.0205544
0.0229214
0.0244102
0.0230565
0.0238805
0.0248848
0.0240549
0.0253598
0.0257559
0.0251904
0.0256071
0.0279515
0.0291764
0.0292462
0.0291404
0.0288553
0.0294046
0.0308184
0.0281392
0.0274189
0.0287128
0.0290752
0.0285533
0.0291831
0.0289859
0.028966
0.0301104
0.0323906
0.0327646
0.0331817
0.0325866
0.0339256
0.0341514
0.0342277
0.0361328
0.0358617
0.0354264
0.0328546
0.0321872
0.0314746
0.0297711
0.0301304
0.0316
0.0332167
0.0350033
0.0329655
0.0330923
0.0343563
0.0327172
0.0341251
0.0365257
0.0348656
0.0350972
0.0361834
0.0361015
0.0368451
0.0354247
0.0368667
0.0372111
0.0375072
0.0378089
0.0401696
0.0406369
0.0392482
0.0400263
0.0369781
0.0370934
0.0373464
0.0356979
0.0350994
0.0344973
0.034839
0.0350772
0.0361749
0.036109
0.0378722
0.0384738
0.0379387
0.0373051
0.0356205
0.0359372
0.0353075
0.0357783
0.0353867
0.0331567
0.0310962
0.032197
0.0334354
0.0337746
0.0351683
0.0355648
0.0359124
0.0351643
0.0352829
0.0332435
0.033037
0.0326702
0.0301658
0.0245594
0.0218965
0.0232282
0.0236064
0.0220786
0.020683
0.0174448
0.0153743
0.0174655
0.0156968
0.0140333
0.0164298
0.0128356
0.0131989
0.0154724
0.0156175
0.0166083
0.0164336
0.0150985
0.0146232
0.014042
0.0133991
0.015745
0.0151314
0.014606
0.0152079
0.0149643
0.012887
0.0129722
0.0152003
0.0155381
0.015942
0.0123619
0.010746
0.0110463
0.0102231
0.0102487
0.0101103
0.00881071
0.00736877
0.00481683
0.00419802
0.00556208
0.00396055
0.00144156
0.00104525
0.000800012
-0.00128028
-0.000197632
0.00103037
0.00337229
0.00378576
0.00122143
0.000627778
-0.00104382
-0.0018343
-0.00277294
-0.00587459
-0.00713824
-0.00954704
-0.0110699
-0.0106647
-0.00928168
-0.00986921
-0.00837828
-0.00676741
-0.00700676
-0.00508102
-0.00499085
-0.00675296
-0.00939846
-0.0109698
-0.0115163
-0.00908948
-0.00673795
-0.00550267
-0.00541329
-0.00648522
-0.00871822
-0.0110963
-0.0125894
-0.0141561
-0.0147475
-0.0133125
-0.013802
-0.0121745
-0.0113995
-0.0104612
-0.00835917
-0.00710915
-0.00674112
-0.00629658
-0.00882447
-0.0123764
-0.0120016
-0.0177418
-0.0166275
-0.0116743
-0.0128819
-0.0122342
-0.0127009
-0.0122405
-0.0128045
-0.0143419
-0.0158044
-0.0171509
-0.0173519
-0.0183916
-0.0192702
-0.0190032
-0.0186205
-0.0191626
-0.0176777
-0.016216
-0.0168253
-0.0165466
-0.0164095
-0.0164298
-0.018608
-0.019929
-0.0213636
-0.0218715
-0.0234052
-0.0239146
-0.0233516
-0.0206754
-0.0178557
-0.0188764
-0.016737
-0.0184525
-0.0170522
-0.0135765
-0.0140729
-0.0135915
-0.0131804
-0.0168805
-0.0167219
-0.0127204
-0.0118761
-0.00917362
-0.00858359
-0.0080656
-0.00657219
-0.00705344
-0.00746197
-0.00775751
-0.0129109
-0.0149071
-0.0157459
-0.0144425
-0.0120256
-0.0125347
-0.0130165
-0.0135202
-0.0130928
-0.0117743
-0.00959393
-0.00756708
-0.00469418
-0.00496061
-0.00833831
-0.00978852
-0.0102653
-0.01072
-0.0131061
-0.0143836
-0.0135229
-0.0145077
-0.0123367
-0.0110234
-0.00859486
-0.00708952
-0.00655311
-0.00703444
-0.00658061
-0.00823235
-0.0090201
-0.00896095
-0.0100569
-0.00929487
-0.0106476
-0.00807651
-0.00753554
-0.00897549
-0.00734901
-0.00661505
-0.0047429
-0.00571527
-0.00553005
-0.00620045
-0.00575369
-0.0052283
-0.00767042
-0.00512931
-0.00265231
-0.00028033
0.0039561
0.00503973
0.00396808
0.00475374
0.00442329
0.00401465
0.00357349
0.00314871
0.00178776
0.000531965
-0.00258751
-0.00455266
-0.00436031
-0.00302228
0.00143566
0.00397632
0.00355434
0.00512054
0.00662688
0.00603105
0.00830058
0.00941612
0.0053732
0.00518262
0.00186964
0.0014716
0.00103442
0.00260819
0.00524231
0.00498055
0.00385664
0.00489095
0.00608865
0.00643908
0.00691666
0.00748335
0.00809236
0.00869264
0.00723385
0.00767122
0.0109702
0.0101096
0.00808388
0.00690336
0.00559364
0.00219307
0.000749051
0.000313563
0.00193819
0.00166899
-0.000458202
-0.000421339
-0.00221427
-0.00184743
-0.0013468
-0.000751517
0.00188997
0.00252454
0.00309944
0.0025675
0.00189169
0.004049
0.00303269
0.00385301
0.00553632
0.00712263
0.0086617
0.0102082
0.0118162
0.0145343
0.0144003
0.0164378
0.0216538
0.024038
0.0295634
0.0321893
0.0318647
0.0325334
0.0371394
0.0426332
0.0479759
0.0511435
0.0531288
0.0559422
0.0586113
0.0601778
0.0606937
0.057216
0.0538013
0.0515004
0.0493532
0.0483853
0.0496047
0.0510015
0.0535488
0.0522044
0.0499152
0.0476222
0.0432664
0.0407942
0.0401635
0.0433475
0.0483375
0.049144
0.049795
0.051334
0.0538156
0.0543001
0.056848
0.0585139
0.0573409
0.0563568
0.0595708
0.0589732
0.0565355
0.0542137
0.050952
0.0476884
0.0473611
0.0489143
0.0503041
0.0525019
0.0474979
0.0433015
0.0419405
0.0414594
0.0429144
0.0443684
0.0438845
0.0405198
0.0363198
0.0353141
0.0385135
0.0369092
0.036473
0.0341603
0.0339138
0.0316699
0.0313643
0.0309385
0.0293455
0.0285543
0.028553
0.0293503
0.0269745
0.0254706
0.0258964
0.0243165
0.0217964
0.022396
0.0221637
0.0231318
0.0263132
0.0257
0.0222639
0.0209591
0.0187266
0.0185004
0.0202133
0.0198041
0.0232231
0.0244375
0.0214337
0.0212194
0.0198225
0.0232893
0.0266793
0.0270599
0.0254995
0.0250605
0.0237938
0.0237337
0.0258944
0.0232686
0.0228281
0.0225262
0.0203027
0.0200894
0.0208168
0.022421
0.0228499
0.0220681
0.0230603
0.0258334
0.0254155
0.0268533
0.0282075
0.0275473
0.024943
0.0224597
0.0191508
0.0160529
0.0121821
0.00453224
-0.00492429
-0.0152343
-0.0284592
-0.0416687
-0.0539342
-0.0683219
-0.0778861
-0.0906638
-0.0986715
-0.104903
-0.11133
-0.112907
-0.115571
-0.119253
-0.117882
-0.105391
-0.0937263
-0.0888501
-0.0757463
-0.060421
-0.0389019
-0.0102358
0.0155164
0.0352848
0.0589971
0.0855864
0.114998
0.150193
0.181157
0.218896
0.257437
0.276829
0.282132
0.287414
0.297747
0.309197
0.318819
0.329653
0.336719
0.340013
0.33351
0.319165
0.303916
0.269691
0.228415
0.192018
0.153442
0.112644
0.083607
0.0673363
0.0548615
0.0452329
0.0325153
0.0127816
-0.00789518
-0.0344488
-0.0578262
-0.0699922
-0.0809322
-0.0936542
-0.116188
-0.138582
-0.145899
-0.156208
-0.168577
-0.178069
-0.186735
-0.196606
-0.204696
-0.209994
-0.217471
-0.223079
-0.23076
-0.238448
-0.244076
-0.250587
-0.253933
-0.256084
-0.264029
-0.27278
-0.278365
-0.282831
-0.288234
-0.286637
-0.282103
-0.282684
-0.283426
-0.286356
-0.293482
-0.295795
-0.294267
-0.293854
-0.2935
-0.297147
-0.302735
-0.307213
-0.312539
-0.316688
-0.319652
-0.317442
-0.314085
-0.307622
-0.299103
-0.288587
-0.278127
-0.263774
-0.243568
-0.226533
-0.212676
-0.197991
-0.185451
-0.172019
-0.157646
-0.142278
-0.132863
-0.11935
-0.108702
-0.0978921
-0.0859113
-0.0767658
-0.0664782
-0.0560846
-0.0456308
-0.0361686
-0.0287501
-0.0224233
-0.0152273
-0.00818856
-0.00831855
-0.00661287
-5.14062e-005
0.0104
0.0177859
0.021157
0.0225643
0.0260551
0.0286683
0.0304305
0.0333542
0.0344358
0.0336567
0.0309847
0.0313775
0.0317868
0.033163
0.0324603
0.0336401
0.0356756
0.0355539
0.0332768
0.0308608
0.0313353
0.0317401
0.0341215
0.0335275
0.0330031
0.0315865
0.0323049
0.0351727
0.0361897
0.0373415
0.0366007
0.0369295
0.0382836
0.0406169
0.040885
0.0380501
0.0360842
0.0349719
0.0337117
0.0333164
0.0338117
0.0322335
0.0326245
0.0310298
0.0304929
0.0330516
0.032734
0.0355563
0.0385211
0.0416172
0.0438208
0.0420974
0.0414056
0.0407008
0.0379401
0.0360859
0.0361097
0.0359953
0.0377397
0.0373538
0.0358608
0.0362939
0.0376933
0.0371021
0.0365623
0.0341102
0.0307733
0.0305678
0.030497
0.0305514
0.028709
0.0279383
0.0282006
0.0304547
0.0316603
0.0327818
0.0327919
0.0316741
0.0334242
0.0310506
0.0285735
0.0300227
0.0304352
0.0298512
0.0283105
0.028848
0.0294911
0.031257
0.0351509
0.0351657
0.0342821
0.0344713
0.0356974
0.032921
0.029103
0.0282084
0.0272098
0.0280902
0.0268445
0.0224794
0.0230134
0.0234746
0.0248981
0.0243225
0.0227858
0.020322
0.0169575
0.017709
0.0195819
0.02057
0.0216559
0.0228126
0.0240064
0.0242001
0.0243566
0.0244425
0.0234315
0.0243066
0.0270621
0.0247042
0.0232496
0.0227244
0.0231614
0.0225971
0.024068
0.0236069
0.0232398
0.0279834
0.0268439
0.0268155
0.0248817
0.0230167
0.0261881
0.0253603
0.0244978
0.0275683
0.032547
0.0324176
0.0321745
0.0308231
0.0293791
0.0308671
0.0333185
0.0337683
0.0292511
0.024798
0.0224336
0.020174
0.0190251
0.0199823
0.0210307
0.0211469
0.0213008
0.0214587
0.0235867
0.0286541
0.031636
0.031516
0.0322872
0.0329532
0.0325276
0.0320329
0.0324982
0.0309565
0.0324415
0.0319844
0.0306105
0.0313376
0.0301734
0.0311154
0.0341509
0.0312582
0.0264086
0.0255691
0.0297058
0.0307877
0.030789
0.0306915
0.0314864
0.0341757
0.0357714
0.0342943
0.0307723
0.0262372
0.0257221
0.0262587
0.0258737
0.0255865
0.024407
0.0273351
0.0303605
0.0314636
0.0316171
0.032789
0.0339453
0.0330536
0.0310856
0.0300207
0.0288474
0.0245645
0.0201817
0.0227183
0.0222018
0.0216653
0.0231437
0.0236708
0.0262759
0.0279809
0.0277981
0.0297288
0.0287633
0.0258815
0.0260554
0.0292514
0.0294342
0.0275693
0.027627
0.0255849
0.0224307
0.0191625
0.0207901
0.0213336
0.0218218
0.0202887
0.0197707
0.0203027
0.0199151
0.0216304
0.0234612
0.0244092
0.0244641
0.0246055
0.0198042
0.0170251
0.0172313
0.0163873
0.0144626
0.012435
0.0142921
0.0160333
0.0186698
0.0172229
0.0167221
0.0172022
0.0146999
0.0132504
0.0128836
0.0106215
0.00747585
0.00444696
0.00352393
0.00468574
0.00490331
-0.000857943
-0.00463481
-0.00446241
-0.00137046
-0.00138054
-0.000504231
-0.000741989
-0.00208313
-0.000506819
-0.000984061
0.000519451
0.00103997
0.000612139
-0.000734488
-0.000978221
-0.00210729
-0.00412103
-0.00802995
-0.0138548
-0.0166242
-0.015372
-0.0101334
-0.0109418
-0.0138263
-0.0168087
-0.0199012
-0.0211052
-0.019411
-0.0157987
-0.0152406
-0.0157035
-0.0131525
-0.014554
-0.0148791
-0.0151064
-0.0172238
-0.01723
-0.0171339
-0.0159544
-0.015718
-0.0174565
-0.0192041
-0.0189937
-0.0238541
-0.0268069
-0.0278646
-0.0270294
-0.0222924
-0.0226354
-0.0230322
-0.0194519
-0.0158611
-0.0162276
-0.0135235
-0.0117281
-0.0128292
-0.0138251
-0.0157241
-0.0205438
-0.0223091
-0.0200499
-0.0187973
-0.0155815
-0.0114286
-0.0133582
-0.0153822
-0.0175031
-0.0187142
-0.0179997
-0.0183369
-0.0186981
-0.0160535
-0.0163737
-0.0166332
-0.0158124
-0.0128993
-0.011891
-0.0117933
-0.011621
-0.0123953
-0.0121426
-0.0138915
-0.0116697
-0.0115019
-0.0124068
-0.0143964
-0.0144739
-0.0106339
-0.0108629
-0.0121407
-0.0134431
-0.0157433
-0.0170152
-0.0172354
-0.0143856
-0.0124541
-0.0114369
-0.0103385
-0.00917083
-0.00795244
-0.00770634
-0.0054579
-0.00423226
-0.00505202
-0.00493517
-0.0078933
-0.00893064
-0.0100435
-0.00722074
-0.00544471
-0.00769342
-0.00594271
-0.00516845
-0.00534892
-0.00346694
-0.00451148
-0.00947881
-0.0103727
-0.0102039
-0.00898854
-0.00774691
-0.00550142
-0.00327439
-0.00308599
-0.00295244
-0.00488449
-0.00688644
-0.00495569
-0.00308286
-0.00325299
-0.00444716
-0.00364433
-0.00282324
3.5551e-005
0.00294781
0.00192401
0.00096826
-0.00192197
-0.00275541
-0.00154588
-0.000310841
-6.97944e-005
0.00015756
-0.00464689
-0.006498
-0.00540568
-0.00337392
0.00159948
0.00152239
-0.000592778
0.00126977
0.00212782
-6.65988e-007
-0.00509952
-0.0061557
-0.00416017
-0.00310859
-0.00200185
-0.00484606
-0.00465181
-0.00343296
-0.0032052
-0.000984616
-0.000786205
0.0013775
0.00649764
0.00856978
0.00959399
0.00957468
0.0105202
0.00944197
0.00935348
0.0072689
0.0052018
0.00516404
0.00516482
0.00720989
0.00530102
0.00843586
0.00960832
0.00580902
0.00602605
0.00924643
0.00945731
0.00964688
0.0118055
0.0109263
0.0100061
0.00704522
0.00504758
0.00302048
0.000973836
0.000919405
0.00186974
0.00383708
0.000832078
0.000862761
0.00493408
0.00404753
0.00320071
0.00538766
0.00559957
0.00382542
0.00105284
-0.000730612
-0.00253624
-0.0043732
-0.00324759
-0.0021619
-0.00311491
-0.00110188
-0.000114942
0.000856132
0.000822904
0.00179724
-0.00020976
-0.00218883
-0.00313326
-3.92349e-005
0.00609395
0.0112638
0.0144645
0.0186874
0.0209219
0.0241561
0.0283784
0.0315779
0.0347461
0.037877
0.0409681
0.0420203
0.0450383
0.0480298
0.0540051
0.0599765
0.0569565
0.0569565
0.0569863
0.0540532
0.0541613
0.052311
0.0504991
0.0497191
0.0499617
0.0522155
0.0544684
0.0547081
0.0559231
0.0541039
0.0502439
0.0453395
0.0403913
0.0394037
0.0433852
0.0483478
0.0513054
0.0542726
0.0572633
0.0592893
0.0593592
0.0614778
0.0636453
0.0638573
0.0631054
0.0623775
0.058659
0.0549344
0.0551884
0.0534078
0.0495827
0.0467069
0.0437791
0.0408029
0.0427864
0.0427421
0.040685
0.0406312
0.0365968
0.036596
0.03564
0.0337358
0.0338857
0.0340869
0.0343318
0.0316084
0.0309016
0.0301946
0.0284703
0.0277133
0.023911
0.0230549
0.0231415
0.0231731
0.024157
0.0261053
0.0260334
0.0249587
0.024899
0.0228704
0.0228866
0.0199566
0.0210848
0.0232701
0.0215059
0.0217808
0.0220795
0.0233843
0.025677
0.02794
0.0301587
0.0333223
0.0334249
0.0324663
0.0324518
0.0313919
0.0323017
0.0311992
0.0301039
0.0300346
0.0270081
0.0260372
0.0261297
0.0282877
0.0275071
0.0267777
0.0250843
0.0234078
0.0237274
0.0250221
0.0292733
0.031466
0.0295907
0.0296433
0.031627
0.0325512
0.0334312
0.0332867
0.0321397
0.0270128
0.0219268
0.0198989
0.0199415
0.0160604
0.0102543
0.00651462
-0.00117371
-0.0108311
-0.0194813
-0.0331493
-0.0458591
-0.0586308
-0.0714793
-0.084412
-0.0974285
-0.10452
-0.109671
-0.111859
-0.111057
-0.113238
-0.117377
-0.114452
-0.0984468
-0.0853528
-0.0811705
-0.0659095
-0.0475872
-0.025227
0.00514347
0.0314955
0.052801
0.0840358
0.110182
0.142231
0.178181
0.210043
0.251836
0.289584
0.307318
0.315068
0.322862
0.333726
0.345677
0.354728
0.36388
0.368126
0.370451
0.36083
0.338233
0.315626
0.275977
0.229253
0.189432
0.143499
0.101451
0.0702961
0.0520558
0.04576
0.0374455
0.0231506
-8.93816e-005
-0.0242458
-0.0502993
-0.0702415
-0.0850754
-0.0988148
-0.113483
-0.140112
-0.158737
-0.167393
-0.176113
-0.185921
-0.195833
-0.202855
-0.211981
-0.221194
-0.224469
-0.228775
-0.236078
-0.245345
-0.250545
-0.256658
-0.26267
-0.265579
-0.272392
-0.280129
-0.288816
-0.292483
-0.296164
-0.302891
-0.302689
-0.299578
-0.302568
-0.303657
-0.306836
-0.314086
-0.31338
-0.311687
-0.311976
-0.313217
-0.316386
-0.319466
-0.32345
-0.327341
-0.334151
-0.334901
-0.329618
-0.32333
-0.312067
-0.303856
-0.292719
-0.28167
-0.265714
-0.244848
-0.228059
-0.214327
-0.201628
-0.187933
-0.172215
-0.156449
-0.141616
-0.1307
-0.117699
-0.105615
-0.0974608
-0.0852545
-0.0710197
-0.0617822
-0.0525683
-0.0434016
-0.033301
-0.0242788
-0.0163396
-0.0124801
-0.00568983
4.8682e-005
0.00275739
0.00746081
0.0131837
0.0169487
0.0187738
0.0216712
0.0256455
0.028694
0.0288066
0.0299669
0.0291539
0.0263441
0.0285137
0.0286414
0.0307101
0.0317086
0.0316324
0.0324844
0.034274
0.0360169
0.0337325
0.0354427
0.0331695
0.0329326
0.0327484
0.0336274
0.0365743
0.0365871
0.0366571
0.0357701
0.0349079
0.03505
0.0351754
0.0352654
0.0353046
0.0362826
0.032195
0.0310435
0.031836
0.0305856
0.0313095
0.031027
0.0317577
0.0315196
0.0303274
0.0331909
0.0361147
0.0360971
0.0361309
0.0342033
0.0362983
0.0363976
0.0364827
0.0395367
0.039546
0.0385014
0.0383986
0.0362393
0.0360303
0.0327833
0.0345134
0.0352378
0.0299741
0.0307382
0.0315432
0.0313981
0.0323067
0.0332677
0.0322745
0.0293156
0.0263764
0.0244401
0.0214901
0.0265113
0.0324919
0.0294242
0.0293051
0.0271362
0.0269238
0.0276786
0.0264142
0.0281458
0.0278891
0.026658
0.0274638
0.0283141
0.0262118
0.0251552
0.0241379
0.0251498
0.0241781
0.0232086
0.0242269
0.0252199
0.0251775
0.0240928
0.023963
0.0237899
0.0235793
0.0253406
0.028086
0.0258288
0.0215823
0.0213582
0.0211659
0.0200119
0.0218987
0.0228248
0.021785
0.0227708
0.022771
0.0247736
0.0247661
0.0247374
0.0246783
0.0235827
0.0244481
0.0282759
0.0300713
0.0288424
0.0295995
0.030354
0.0291172
0.0288996
0.0277095
0.0275524
0.0294307
0.0303432
0.0312857
0.0292509
0.0282293
0.0292103
0.0301832
0.0321386
0.0320685
0.0319679
0.0338342
0.0326686
0.034475
0.03426
0.0330321
0.0338009
0.0335762
0.0333669
0.0301805
0.0320218
0.0348933
0.0347947
0.0357227
0.0326713
0.0316325
0.0345974
0.0365571
0.0375034
0.0384293
0.04033
0.038203
0.0400485
0.0408695
0.0386709
0.0404599
0.0392443
0.0380326
0.0388326
0.0386511
0.039493
0.0393611
0.0392554
0.0391738
0.0391115
0.0350623
0.0360184
0.0389721
0.0379162
0.0358443
0.0337514
0.0336348
0.0354943
0.038332
0.0371522
0.0379608
0.0387643
0.0395701
0.0363849
0.0362143
0.0370627
0.0359325
0.0358242
0.0337362
0.0346651
0.033606
0.0325532
0.0355006
0.0354423
0.0373732
0.0372895
0.0361884
0.0370692
0.0379326
0.0387812
0.0366188
0.0354499
0.0332797
0.0311133
0.0309555
0.0308102
0.0296805
0.0285679
0.0284724
0.0293927
0.0283262
0.0282691
0.0292169
0.029165
0.0311087
0.031044
0.0299675
0.029877
0.0297715
0.0286515
0.0285187
0.0303761
0.0302278
0.0250781
0.0209312
0.0197912
0.0216619
0.0205465
0.0204469
0.0203638
0.0172964
0.0182424
0.0201989
0.0201619
0.0211269
0.0200892
0.015044
0.0159874
0.0159166
0.01383
0.0137276
0.0116109
0.00948271
0.00634701
0.00520856
0.00307263
0.00394448
0.00482899
0.00173
0.000649805
-0.00241095
-0.00145328
-0.00147973
-0.00249423
-0.00250187
-0.00450838
-0.00551968
-0.00654123
-0.00557747
-0.00763141
-0.00870444
-0.00679606
-0.00690381
-0.00902365
-0.0121505
-0.0122784
-0.0114009
-0.00951196
-0.0116062
-0.0126798
-0.013731
-0.0167598
-0.0177683
-0.0157602
-0.00774063
-0.00771529
-0.012691
-0.0136748
-0.0136728
-0.0136899
-0.0167289
-0.0197909
-0.0218744
-0.023976
-0.0250901
-0.0252096
-0.0233266
-0.021433
-0.0225216
-0.0215867
-0.0226248
-0.022635
-0.0216189
-0.0215804
-0.0225259
-0.0224631
-0.0214006
-0.0223468
-0.0213094
-0.0192945
-0.0203056
-0.020344
-0.0204082
-0.0204941
-0.0205951
-0.0217031
-0.0198092
-0.0189042
-0.0199797
-0.0210294
-0.0230492
-0.0210375
-0.0169958
-0.017928
-0.0188409
-0.0177429
-0.0176437
-0.017553
-0.0164795
-0.0164305
-0.0154106
-0.0174217
-0.0174627
-0.0165294
-0.0186148
-0.0207101
-0.0178052
-0.0168898
-0.0169541
-0.0139901
-0.0149926
-0.0179593
-0.0168917
-0.0157941
-0.0136737
-0.0125397
-0.0124027
-0.0132739
-0.0131633
-0.0130795
-0.0110282
-0.013012
-0.0130299
-0.0100775
-0.0111473
-0.0132295
-0.012313
-0.0113863
-0.0134386
-0.0124609
-0.0104469
-0.0113936
-0.0123017
-0.0101757
-0.00902299
-0.00785366
-0.00667935
-0.00651225
-0.00536389
-0.00524397
-0.00715953
-0.00611417
-0.00710755
-0.00613544
-0.00919012
-0.0132612
-0.0133366
-0.0114032
-0.00644812
-0.00746049
-0.00843248
-0.00736014
-0.00824366
-0.00508742
-0.00389954
-0.00369125
-0.00447593
-0.00326775
-0.00208014
-0.00192453
-0.00280932
-0.00473902
-0.00671374
-0.00972908
-0.0077764
-0.00784348
-0.00791589
-0.00597838
-0.00601636
-0.00701747
-0.00797285
-0.00487791
-0.00173268
-0.00154205
-0.000315505
0.000933881
-0.00180938
-0.00156168
0.00266154
0.00284736
0.00298644
0.00307396
0.00311026
0.00210081
0.00105574
-0.00101114
-0.00108355
-0.00114433
-0.00117707
0.000832192
-0.00110647
0.00101202
0.00318732
0.00341358
0.00467982
0.00297099
0.0012693
0.00155612
0.00381401
0.00502835
0.00318874
0.00328993
0.0033326
0.00332336
0.00427415
0.00220107
0.00112272
0.00205858
0.0020271
0.00104377
0.000119536
0.00125969
0.00346346
0.00372388
0.00202825
0.000359313
-0.000302956
0.00302075
0.00731121
0.00555232
0.00373247
0.00584592
0.00789367
0.00988335
0.00782835
0.00674647
0.00765839
0.00658579
0.00554908
0.00656545
0.00564723
0.00780055
0.00802472
0.0103122
0.0116492
0.012017
0.00839346
0.00575522
0.0100803
0.0103504
0.00855228
0.0106794
0.0117326
0.00771968
0.00465517
0.00555867
0.00545343
0.00136383
0.00231297
0.00132054
-0.00159922
0.000560993
0.00180096
0.00611281
0.00648157
0.00588636
0.00330232
0.00270314
0.00606382
0.00536319
0.00458578
0.000723316
-0.00122426
0.0037516
0.00766747
0.00754605
0.0104138
0.0102987
0.0122269
0.016221
0.0142973
0.019464
0.0217206
0.025058
0.0284587
0.0318992
0.0353516
0.0387866
0.0451762
0.047497
0.0487316
0.0508709
0.0539151
0.0548738
0.0517652
0.0526137
0.056449
0.0523022
0.0492029
0.0481763
0.0472409
0.0464069
0.0466742
0.0500334
0.0514659
0.0519454
0.0504408
0.0489186
0.0453464
0.0436965
0.0439483
0.0440907
0.0471235
0.0520572
0.0529124
0.0527173
0.0535051
0.0523111
0.0531693
0.0581089
0.0571516
0.0583092
0.0615822
0.0579598
0.0574208
0.0579353
0.0564682
0.0559821
0.0524408
0.0498134
0.0500769
0.050219
0.0482391
0.0441486
0.0439694
0.0447327
0.0424755
0.040237
0.0380549
0.0349615
0.0349808
0.0351261
0.0343983
0.0327859
0.0342661
0.0308063
0.0293681
0.0299102
0.0293931
0.0277825
0.0220529
0.0211899
0.0231924
0.0230725
0.0238543
0.0255718
0.0272655
0.0249785
0.0197519
0.021621
0.0236126
0.0247413
0.0260087
0.0234024
0.0258976
0.0264591
0.0250451
0.0256108
0.0241129
0.028514
0.0297864
0.0289147
0.0288972
0.0287463
0.0274875
0.0281569
0.0257981
0.0254575
0.0281801
0.0260052
0.0239622
0.0250676
0.0263237
0.023718
0.0202239
0.0208038
0.0214125
0.0220016
0.0225243
0.0219395
0.0252164
0.0223373
0.0192992
0.0191145
0.0218102
0.025425
0.0240062
0.021604
0.0172673
0.0140388
0.00995087
0.00602238
0.00125681
-0.00435829
-0.0138503
-0.025259
-0.040633
-0.0520244
-0.0604842
-0.0730564
-0.0797748
-0.0886587
-0.0967117
-0.105921
-0.113259
-0.108685
-0.107149
-0.111598
-0.10698
-0.0962507
-0.0853749
-0.0773324
-0.0691199
-0.0457506
-0.0182528
0.00633255
0.0319554
0.0565613
0.0860968
0.112515
0.14278
0.18087
0.213781
0.247527
0.283137
0.307654
0.319127
0.330613
0.342165
0.35183
0.359647
0.366639
0.369812
0.369156
0.361644
0.338233
0.307872
0.272501
0.223063
0.182505
0.140787
0.0928854
0.0587932
0.0375241
0.0291102
0.0255983
0.0140449
-0.0104909
-0.0349539
-0.0562969
-0.0794858
-0.095502
-0.105344
-0.118028
-0.137586
-0.154062
-0.165507
-0.171976
-0.18252
-0.193181
-0.198991
-0.211967
-0.221106
-0.225394
-0.225798
-0.227276
-0.23678
-0.25226
-0.260668
-0.263968
-0.27313
-0.283142
-0.293006
-0.299739
-0.29837
-0.300938
-0.306487
-0.307063
-0.307709
-0.30646
-0.31134
-0.316362
-0.313524
-0.31481
-0.316192
-0.318635
-0.317096
-0.319533
-0.325907
-0.331186
-0.338347
-0.33438
-0.321286
-0.309081
-0.300786
-0.288437
-0.277071
-0.263727
-0.241445
-0.226253
-0.211175
-0.196223
-0.183395
-0.16768
-0.157054
-0.142488
-0.128943
-0.116382
-0.104768
-0.0990704
-0.0882664
-0.0743438
-0.0613017
-0.0511506
-0.0429117
-0.0376151
-0.0282963
-0.0229928
-0.0167406
-0.00857087
-0.00250647
0.00143965
0.00426571
0.00798134
0.0116067
0.0121702
0.0167063
0.0182517
0.0188417
0.0195074
0.020272
0.0211494
0.0231421
0.0262418
0.0264299
0.0266788
0.0269554
0.0262237
0.0254482
0.0275982
0.0286498
0.0265887
0.0284112
0.0281249
0.0267473
0.0243047
0.0278295
0.0313571
0.0309226
0.0285568
0.0262836
0.0281179
0.0270642
0.026116
0.0282567
0.0334613
0.0326988
0.0329347
0.0291345
0.0272672
0.0273079
0.0252409
0.0270609
0.0257733
0.0273938
0.0289469
0.0304635
0.0309776
0.0295232
0.029131
0.0258251
0.0296216
0.0325266
0.0285355
0.0276335
0.0277973
0.0279973
0.0262004
0.0253733
0.0254856
0.026513
0.0244393
0.0222579
0.0229723
0.0225964
0.0231523
0.0226686
0.0201774
0.0197113
0.0192999
0.0159679
0.0147315
0.015598
0.0175649
0.0166198
0.0167421
0.0169044
0.0160757
0.018224
0.0213199
0.020339
0.0202642
0.019087
0.0168089
0.017441
0.0180027
0.0165205
0.0140245
0.012546
0.0141147
0.0157557
0.016487
0.016318
0.0152481
0.0172673
0.019357
0.0164919
0.017642
0.0217761
0.0208647
0.0198823
0.0218105
0.0236393
0.0223684
0.0220067
0.0205719
0.0180886
0.0175858
0.0170945
0.0186448
0.0162625
0.0199669
0.0207692
0.0156709
0.0196636
0.0187305
0.0178474
0.0209854
0.0191135
0.0172015
0.018223
0.0161581
0.0159951
0.0187319
0.0183761
0.0209442
0.02146
0.0189523
0.0204518
0.0209886
0.0185892
0.0172737
0.0200543
0.0249339
0.0269064
0.0299562
0.0280605
0.0261906
0.0293157
0.0304052
0.0304325
0.0313765
0.0312243
0.0319723
0.0346266
0.0352024
0.0347224
0.0352146
0.0367098
0.0342383
0.0338271
0.0334975
0.0312629
0.0321274
0.0320859
0.034124
0.0342201
0.0353466
0.0374732
0.0375697
0.0396085
0.0385677
0.039433
0.0391989
0.0378698
0.0374589
0.0389876
0.0384831
0.0359758
0.0354965
0.0350731
0.0377286
0.0384785
0.0373292
0.0382772
0.0383097
0.038406
0.0415388
0.0416779
0.0417919
0.0438521
0.0438346
0.0437234
0.0435112
0.0442004
0.0428032
0.0423401
0.0448381
0.0443281
0.0408418
0.0394087
0.0410534
0.0427931
0.0426361
0.0435808
0.0426156
0.0407203
0.0398677
0.0400267
0.0401648
0.0392518
0.0392623
0.0391782
0.0379908
0.0397011
0.0403205
0.0378689
0.0373733
0.0368648
0.0343761
0.0349382
0.0345771
0.0343119
0.0341522
0.0310978
0.031138
0.0312533
0.0324171
0.033598
0.0327631
0.0318808
0.0289239
0.0298725
0.030716
0.029454
0.0260961
0.0236615
0.0211765
0.0196729
0.0181844
0.0207435
0.0203785
0.0191105
0.0209512
0.0209022
0.0209541
0.0190878
0.0182764
0.0194874
0.0196864
0.0198399
0.0199192
0.0189022
0.0177767
0.0165405
0.0162027
0.0147824
0.0133065
0.0108079
0.0123218
0.0108826
0.00952022
0.00925737
0.00810729
0.00607235
0.00614381
0.00630273
0.00752175
0.00676768
0.00900463
0.00719755
0.00631553
0.00633485
0.00524146
0.00403231
0.00271567
0.00231047
0.000844502
-0.00164834
-0.00213128
-0.00256812
-0.00292683
-0.00118264
-0.000320542
-0.00133689
-0.00223989
-0.00404883
-0.00579219
-0.00450483
-0.0042245
-0.00598834
-0.00482928
-0.00477266
-0.00683387
-0.00901685
-0.00831352
-0.00770441
-0.00916061
-0.00864664
-0.0101238
-0.0105541
-0.00990374
-0.0111465
-0.00926632
-0.00825905
-0.0101327
-0.00990713
-0.0096116
-0.00928232
-0.00895876
-0.00867986
-0.00948025
-0.00938687
-0.00941619
-0.00957262
-0.00884801
-0.00922239
-0.00966593
-0.00814178
-0.00860961
-0.0110297
-0.0103668
-0.00959339
-0.0116925
-0.0106595
-0.0125025
-0.0152418
-0.0139076
-0.0135371
-0.0111712
-0.0128501
-0.0126098
-0.0124784
-0.0124736
-0.0126002
-0.0138504
-0.0122042
-0.0136312
-0.0150935
-0.0165498
-0.0169591
-0.0152844
-0.0154966
-0.0165776
-0.0165219
-0.017337
-0.0180431
-0.016671
-0.0142588
-0.0128485
-0.0134821
-0.0141975
-0.0150246
-0.0159824
-0.0130771
-0.0123012
-0.0116344
-0.0110457
-0.0114962
-0.0119429
-0.0123432
-0.0116583
-0.0108577
-0.0129217
-0.012844
-0.0116316
-0.0123046
-0.0128943
-0.01144
-0.0109852
-0.0115736
-0.0132448
-0.0170303
-0.0179507
-0.0170131
-0.0152105
-0.0135223
-0.0139169
-0.0143543
-0.0147901
-0.0151801
-0.015484
-0.0156699
-0.012717
-0.0116179
-0.0143792
-0.0150214
-0.0125764
-0.0120843
-0.0115901
-0.0111387
-0.0127711
-0.0125199
-0.0134065
-0.0144388
-0.0126101
-0.0129001
-0.0132767
-0.0116991
-0.0121218
-0.0124992
-0.0117898
-0.0109604
-0.00998939
-0.0098687
-0.00860487
-0.00921834
-0.00774147
-0.00721539
-0.00668602
-0.00519954
-0.00579797
-0.00651503
-0.00637285
-0.00637967
-0.00652902
-0.00580036
-0.00616102
-0.00756948
-0.00797937
-0.00934401
-0.00762086
-0.00577565
-0.00678588
-0.00564316
-0.00535395
-0.00593901
-0.00543139
-0.00487318
-0.00331136
-0.00379328
-0.00336203
-0.00205221
-0.00188642
0.000126887
0.00299437
0.00273709
0.000388249
0.000990093
0.00158996
0.00323568
0.000970749
-0.0031701
-0.0041642
-0.00400294
-0.00169258
0.000746272
0.00128049
0.000867501
0.00145947
7.98015e-006
0.00146881
0.00180632
0.00199694
0.0020314
0.00191578
0.00267089
0.00133036
-0.00206283
-0.00146037
0.000186884
0.000924033
0.000787569
0.00280178
0.00497641
0.00630563
0.00776846
0.00933077
0.00994863
0.0105725
0.0111521
0.0106413
0.00900296
0.008212
0.00725852
0.00714867
0.00790413
0.00655997
0.00416117
0.00175819
0.00140218
-0.000860017
-0.000990558
3.57404e-005
-0.000771169
-0.00241775
-0.00192628
-0.00133258
-0.000682603
-0.00102801
-0.000421127
0.00109027
0.00146767
0.00468564
0.00773447
0.00862106
0.00936817
0.00901232
0.0126003
0.0131849
0.0158192
0.0175519
0.016422
0.0194552
0.0246617
0.0280344
0.0305503
0.035172
0.0378514
0.0405347
0.0451675
0.0497
0.0510922
0.0513175
0.0513654
0.0532431
0.0549743
0.0525977
0.0521625
0.0497238
0.0483376
0.0490551
0.0489177
0.0469527
0.0471708
0.0495645
0.0501093
0.0507656
0.0494822
0.0462019
0.0438662
0.0424222
0.0428271
0.0450531
0.0510901
0.0539466
0.0556487
0.058238
0.0587671
0.0602946
0.0608798
0.0605762
0.0594269
0.0604597
0.059685
0.057094
0.05366
0.0543406
0.0530822
0.0528251
0.0525092
0.0500797
0.0494928
0.0487201
0.0477509
0.0465939
0.0422761
0.0378402
0.0343403
0.0338374
0.0353931
0.0370638
0.0358945
0.0319148
0.0311354
0.0295475
0.0291233
0.0308192
0.0285792
0.0243408
0.0240409
0.0236223
0.0220391
0.0232615
0.0232786
0.0240996
0.023753
0.0242837
0.0267487
0.0272118
0.026737
0.0263823
0.0261938
0.0252018
0.0254169
0.0228296
0.0234109
0.0261152
0.0278848
0.0286553
0.0293619
0.0309458
0.0313597
0.031573
0.0315744
0.0313731
0.0299983
0.0304961
0.0309253
0.0313517
0.0308414
0.0294545
0.028239
0.0272263
0.027428
0.0288346
0.0294167
0.0321274
0.0339068
0.0336881
0.0344038
0.0339922
0.035404
0.0366066
0.0375882
0.0383581
0.0369463
0.0324008
0.0307823
0.0301593
0.0286011
0.0261706
0.0209187
0.0148786
0.0100627
0.00146167
-0.00895539
-0.0182376
-0.0274474
-0.0376547
-0.05093
-0.0633376
-0.0719291
-0.0817381
-0.0877768
-0.0930352
-0.0954815
-0.0950655
-0.0957235
-0.0973845
-0.0959778
-0.0844387
-0.0737157
-0.0697753
-0.0586058
-0.0412181
-0.0216446
0.00406425
0.0268444
0.0446243
0.0693314
0.0949005
0.12528
0.160435
0.191356
0.226054
0.259562
0.274931
0.279226
0.286517
0.299875
0.309366
0.319043
0.327942
0.328077
0.325439
0.314997
0.2967
0.278483
0.244271
0.19699
0.16157
0.121956
0.082112
0.0580249
0.0397067
0.0301929
0.0245383
0.0128115
-0.00791311
-0.0315631
-0.0550747
-0.0763985
-0.0895043
-0.101383
-0.117049
-0.138536
-0.153897
-0.161198
-0.166506
-0.17789
-0.19141
-0.201113
-0.211027
-0.218158
-0.221493
-0.224997
-0.231621
-0.238301
-0.246974
-0.255573
-0.259045
-0.263344
-0.270447
-0.284347
-0.29406
-0.297618
-0.29907
-0.301473
-0.297888
-0.294376
-0.295987
-0.295762
-0.300723
-0.302878
-0.299212
-0.299694
-0.30328
-0.305916
-0.308543
-0.313106
-0.317554
-0.324851
-0.326975
-0.320919
-0.313696
-0.304333
-0.294872
-0.282362
-0.26886
-0.253418
-0.238084
-0.224897
-0.20788
-0.194039
-0.180365
-0.168832
-0.155402
-0.143027
-0.130653
-0.116227
-0.101701
-0.0910375
-0.0792121
-0.065216
-0.0540572
-0.0447593
-0.0373597
-0.0299053
-0.0234486
-0.0180419
-0.0127327
-0.00755906
-0.000545595
0.00329843
0.00798001
0.0115216
0.0119589
0.0123371
0.0127068
0.0181193
0.0206213
0.0232509
0.0250332
0.0249785
0.027081
0.0283197
0.0296605
0.0300592
0.0284664
0.0298316
0.0301089
0.0282606
0.0292615
0.032101
0.0327841
0.0333308
0.0347738
0.0331558
0.0335247
0.0329294
0.0324149
0.0350181
0.0317644
0.0306646
0.030715
0.033897
0.0341798
0.0355228
0.0398795
0.0412026
0.0404479
0.0395786
0.038569
0.0374069
0.0360949
0.0356497
0.0351011
0.0374884
0.0358573
0.0312543
0.0297232
0.0283002
0.0290113
0.0288693
0.0278727
0.0280057
0.0272401
0.0265377
0.0238545
0.0231444
0.0263642
0.0254776
0.0244588
0.0252944
0.0259853
0.0255461
0.025004
0.0243955
0.0217637
0.0221533
0.0226068
0.0241606
0.0228411
0.024662
0.0256238
0.025713
0.0259038
0.0251605
0.0254412
0.0237016
0.0248996
0.0269992
0.0299743
0.0318109
0.0295079
0.0270776
0.0225444
0.0199423
0.0193118
0.0196963
0.0211376
0.022672
0.0223266
0.0231165
0.0230438
0.025097
0.0252526
0.0244769
0.0267298
0.0279684
0.0261511
0.0252418
0.0222132
0.0210498
0.0227489
0.0203216
0.019791
0.0171901
0.0145587
0.0149392
0.0133731
0.0118963
0.010536
0.011308
0.0112151
0.012247
0.0173814
0.0185861
0.0188216
0.0200457
0.020217
0.0202993
0.020265
0.0230981
0.0237954
0.0223671
0.0248353
0.0252325
0.026598
0.0269743
0.0264023
0.0289184
0.0275499
0.0243129
0.0242103
0.0252323
0.0273568
0.025552
0.0257789
0.0259954
0.0231607
0.0232387
0.0262022
0.0290351
0.0277343
0.0263094
0.024782
0.0281836
0.029553
0.0289318
0.0293607
0.0288753
0.0295028
0.0292594
0.0261487
0.0261611
0.0262753
0.0274603
0.0286783
0.0318884
0.0330507
0.0331299
0.0330986
0.0339404
0.0336512
0.0342394
0.0347257
0.0341404
0.0335209
0.0309075
0.0303402
0.0318544
0.0314778
0.0332275
0.0331083
0.0331123
0.0372197
0.0384008
0.0386188
0.0398331
0.0410036
0.0410944
0.0400775
0.0379351
0.0366618
0.0372648
0.0387639
0.039189
0.0365771
0.0349688
0.0334043
0.0339199
0.033544
0.0292945
0.0271768
0.0271838
0.0282963
0.0274849
0.028713
0.0289402
0.0291258
0.0292338
0.0292351
0.0291113
0.0318564
0.0324769
0.0299917
0.0304297
0.0298276
0.0302258
0.0306653
0.0301828
0.0298078
0.0295591
0.0314437
0.0324557
0.033577
0.0327785
0.0310237
0.0262715
0.0214802
0.0226125
0.0236386
0.0245393
0.0293079
0.0259505
0.0244853
0.026941
0.0243542
0.0257656
0.0262162
0.0267432
0.0243766
0.0211357
0.0210278
0.0240477
0.0231778
0.0203899
0.0206478
0.0189111
0.0171391
0.0192943
0.0223471
0.0212777
0.017078
0.0147524
0.0163179
0.014802
0.0132404
0.010673
0.0111406
0.0136805
0.0133237
0.0140906
0.0109901
0.00901793
0.00915744
0.00938153
0.00965503
0.0089381
0.00719004
0.00637325
0.00445696
0.00342017
0.000253683
-3.89804e-005
-0.00244188
-0.00292824
-0.00146299
-0.00100614
0.00048318
-0.00195732
-0.00529689
-0.00751466
-0.00960144
-0.0115606
-0.0114078
-0.0101692
-0.00587887
-0.00657581
-0.00530021
-0.00208943
-0.00497447
-0.00397705
-0.0041074
-0.00636326
-0.00673015
-0.00718266
-0.0076869
-0.0102038
-0.00969307
-0.00911666
-0.0134429
-0.0156494
-0.0177256
-0.0146727
-0.0145045
-0.0132458
-0.00992978
-0.0115954
-0.0112835
-0.0110326
-0.0108752
-0.010835
-0.00892383
-0.00914121
-0.00847395
-0.00689753
-0.00737846
-0.00987757
-0.0123539
-0.0137683
-0.0140875
-0.013287
-0.0123534
-0.0102862
-0.0140976
-0.0148116
-0.0134618
-0.0150875
-0.0137306
-0.0154313
-0.0192244
-0.0161355
-0.0161788
-0.0193556
-0.0196541
-0.0190508
-0.017512
-0.0169977
-0.0144651
-0.0148731
-0.0141861
-0.0133774
-0.0174322
-0.0153487
-0.0151382
-0.0148242
-0.0134401
-0.0140261
-0.0136252
-0.0142792
-0.0150246
-0.0148889
-0.0138881
-0.0130249
-0.0112885
-0.0136556
-0.0140932
-0.0145608
-0.0130149
-0.0114131
-0.0127178
-0.0129008
-0.00894498
-0.00484657
-0.00361534
-0.00327404
-0.00185614
-0.00340259
-0.00295785
-0.00256551
-0.00526405
-0.00708321
-0.0070409
-0.00614129
-0.00537444
-0.00671732
-0.00713609
-0.00658929
-0.00503176
-0.00641915
-0.00571231
-0.00488102
-0.0019069
0.00121476
0.00147438
0.00184885
0.00130379
-0.00220313
-0.00171799
0.0017141
0.00205343
-0.00173078
-0.00165734
-0.00473102
-0.00594207
-0.00226699
-0.0016707
-0.00211028
-0.00153915
-0.000911564
-0.00018705
0.00166557
-0.00133496
-0.000184254
0.00210747
-0.000483698
-0.00199324
-0.00146463
-0.000944873
0.00151999
-0.000110639
-0.00086811
-0.000771308
-0.00182473
-0.00201803
-0.001327
-0.00171587
-0.00314093
0.000445353
0.00208975
0.0018335
-0.000291901
-0.0032678
-8.99852e-005
-0.000769027
0.000670593
0.00319285
0.00275368
0.00330515
0.00480024
0.00519745
0.00646492
0.00858351
0.00754872
0.00637103
0.00307492
0.00369663
0.00428085
0.00387625
0.00353063
0.00428628
0.00617587
0.00721919
0.00642106
0.00477069
0.00524279
0.00280008
0.0003968
-1.6741e-005
0.000510833
0.00293677
0.00622838
0.00836617
0.0103457
0.00817784
0.00788793
0.00851334
0.00910002
0.00969796
0.00735623
0.00911819
0.00701738
0.00107392
0.000292622
0.000662763
0.00315916
0.00174435
-0.000627999
-8.52554e-006
0.00155294
0.00101216
0.000334662
-0.00250092
-0.00450066
-0.00365452
-0.00393724
-0.00231075
0.0022722
0.00486349
0.0105144
0.0152708
0.0171681
0.0192282
0.0214569
0.0208437
0.0203623
0.0229737
0.0276299
0.0342788
0.0368688
0.0413541
0.0466988
0.0528809
0.0548941
0.0537484
0.053469
0.0530943
0.0546723
0.0552559
0.0528979
0.0516453
0.0555353
0.0545918
0.0528224
0.0552178
0.0577527
0.0563883
0.0530755
0.0497597
0.0463863
0.0459063
0.0442808
0.0444852
0.0475114
0.0513689
0.0530837
0.0536959
0.0572554
0.0598177
0.0634381
0.0641666
0.0650425
0.0670909
0.0663203
0.0667214
0.0662683
0.0629206
0.0626276
0.0613334
0.0579819
0.0565225
0.0539149
0.0531336
0.0481696
0.0440317
0.0427456
0.0403519
0.0399015
0.0404514
0.0410584
0.0417742
0.0426396
0.0416811
0.0429075
0.04231
0.0388621
0.0335224
0.0282387
0.0269534
0.0256091
0.0261543
0.0245485
0.0247656
0.0227971
0.0216523
0.0223581
0.0229558
0.0254974
0.0240404
0.0226421
0.0253538
0.0252163
0.0262556
0.0264801
0.0248804
0.0244293
0.0220854
0.0217966
0.0265055
0.0281552
0.0246944
0.0260823
0.027293
0.0253179
0.0241663
0.0228649
0.0224548
0.022988
0.0255221
0.0271148
0.0258178
0.0226719
0.0207029
0.0209194
0.0203118
0.0208534
0.023503
0.0242085
0.0249124
0.0275573
0.0270913
0.029473
0.0316761
0.0296914
0.0285278
0.0302118
0.0297848
0.0242989
0.0238119
0.025382
0.0220622
0.0168943
0.0129056
0.00510544
-0.00351505
-0.00998253
-0.0213386
-0.0316359
-0.043933
-0.0552887
-0.0677559
-0.0773771
-0.0871792
-0.0971718
-0.104346
-0.108675
-0.110116
-0.113617
-0.114119
-0.114563
-0.111897
-0.097079
-0.0910811
-0.0848944
-0.0695287
-0.052011
-0.0293832
-0.00169812
0.0169858
0.0386095
0.0681195
0.0954734
0.130644
0.166623
0.19942
0.234062
0.266592
0.276061
0.279528
0.29305
0.307679
0.318458
0.328416
0.338566
0.3449
0.347394
0.335009
0.319692
0.300383
0.25802
0.214547
0.176917
0.138099
0.100081
0.0758723
0.0594999
0.0450093
0.0364573
0.0219066
-0.000581392
-0.0259528
-0.0541666
-0.0751981
-0.0910409
-0.103707
-0.120227
-0.146645
-0.167016
-0.175399
-0.180851
-0.188421
-0.195146
-0.205049
-0.214132
-0.218382
-0.223769
-0.230249
-0.23577
-0.245276
-0.252715
-0.25904
-0.268217
-0.272227
-0.274068
-0.281753
-0.289314
-0.294792
-0.300238
-0.300704
-0.299241
-0.298892
-0.299687
-0.303644
-0.306764
-0.312032
-0.315419
-0.316885
-0.318382
-0.317858
-0.320266
-0.320565
-0.324725
-0.328731
-0.332583
-0.334297
-0.328902
-0.322437
-0.314947
-0.307482
-0.299085
-0.287796
-0.272642
-0.253638
-0.235783
-0.218062
-0.204447
-0.190902
-0.176384
-0.162846
-0.150247
-0.138548
-0.123725
-0.110761
-0.0976575
-0.0864261
-0.0740924
-0.0636913
-0.0542639
-0.045854
-0.0375032
-0.0282473
-0.0201124
-0.0151134
-0.0102517
-0.00351583
0.0021177
0.00868211
0.0132168
0.0147637
0.0143626
0.0190482
0.0218463
0.0247719
0.0298275
0.0330031
0.0362769
0.0376178
0.0379882
0.0393477
0.0366572
0.0368824
0.0379974
0.0379872
0.0378488
0.0365917
0.0362362
0.0358125
0.0343565
0.0359073
0.0365029
0.0351766
0.0349536
0.0358491
0.0368664
0.035997
0.0382214
0.0385111
0.0358312
0.0351438
0.0364122
0.0376041
0.041695
0.0416701
0.0385257
0.0402697
0.0389204
0.036505
0.0350568
0.0356121
0.0352065
0.0328715
0.0346316
0.034502
0.0354868
0.0355791
0.0337614
0.0330075
0.0352849
0.0365585
0.0367936
0.0359592
0.0380311
0.0399944
0.0378446
0.039588
0.0382412
0.0388293
0.0363836
0.0329382
0.031527
0.0321805
0.0329228
0.0337695
0.0337258
0.0327862
0.032935
0.0331479
0.0323944
0.0336407
0.0338531
0.0330014
0.0340612
0.031017
0.027863
0.0306043
0.029256
0.026842
0.0263922
0.0279401
0.0295194
0.0301607
0.0288881
0.0277173
0.029654
0.0296933
0.0308204
0.0310117
0.0312375
0.0314647
0.0306599
0.0277928
0.0288394
0.029784
0.0286209
0.0293552
0.0280016
0.0285835
0.0301305
0.0316757
0.0342523
0.03289
0.0296124
0.0294345
0.0293617
0.030389
0.0325016
0.0296767
0.0288848
0.0260935
0.0262703
0.0273859
0.0294176
0.0313506
0.0291799
0.0299104
0.0275566
0.0271413
0.0286929
0.0282434
0.0288245
0.0274648
0.0251871
0.0260058
0.025926
0.0259431
0.0260427
0.0262026
0.0263946
0.0275876
0.0287504
0.028855
0.0318788
0.0338076
0.0346363
0.0353694
0.0350207
0.036612
0.0391709
0.0397281
0.0373143
0.0359572
0.0356787
0.0374935
0.037407
0.035415
0.0365042
0.0366534
0.0338357
0.0330208
0.0341783
0.0362809
0.0353066
0.0372408
0.0380781
0.0378222
0.037486
0.0380899
0.0386603
0.0392268
0.0408192
0.0414649
0.0391859
0.0369968
0.0389033
0.0409024
0.0409819
0.037122
0.0382968
0.0384773
0.0356342
0.0357404
0.037774
0.0377203
0.0375732
0.0373354
0.0360186
0.0366419
0.0372305
0.0388126
0.0364173
0.0360711
0.0347956
0.0306057
0.0325078
0.0314998
0.0315709
0.0317028
0.0308714
0.0290492
0.0292079
0.0323213
0.035368
0.035333
0.0352091
0.0359978
0.0367087
0.0383594
0.0349728
0.0325753
0.0321943
0.0318559
0.0315819
0.0313881
0.0312829
0.0302658
0.0303284
0.0304544
0.0316217
0.0298044
0.0269751
0.0271074
0.0301791
0.0301739
0.0280831
0.0299057
0.0286496
0.0293299
0.0289682
0.0275897
0.0282215
0.0268896
0.0226167
0.0194196
0.024308
0.026284
0.0253415
0.0244664
0.023638
0.0248316
0.0230202
0.0221775
0.0202801
0.0183101
0.0172565
0.0171164
0.0148956
0.0146074
0.0142718
0.0109134
0.00955911
0.0102354
0.008966
0.00876964
0.00865799
0.00663469
0.00569492
0.00682596
0.00500843
0.00521808
0.00542816
0.00561202
0.00574561
0.00580982
0.00479225
0.00368841
0.00250213
0.00224533
-6.3204e-005
-0.00139965
-0.00273735
-0.00404939
-0.00631118
-0.00650283
-0.00761098
-0.00663015
-0.00656322
-0.00742131
-0.00922275
-0.00999131
-0.0107538
-0.0125377
-0.0153683
-0.0172662
-0.0182458
-0.0173131
-0.0174654
-0.0166918
-0.0169742
-0.0182889
-0.0186091
-0.0199073
-0.0191582
-0.0203406
-0.02144
-0.0224498
-0.0223719
-0.0212164
-0.0220008
-0.0227482
-0.0224853
-0.0222396
-0.0200367
-0.0198981
-0.0208389
-0.0218668
-0.0239808
-0.0251716
-0.0254226
-0.0257107
-0.0270096
-0.0262913
-0.0275297
-0.0277025
-0.0257936
-0.0267945
-0.0237054
-0.022535
-0.0212996
-0.020022
-0.0217289
-0.0204485
-0.0192079
-0.0170298
-0.0169312
-0.015921
-0.0149997
-0.0201591
-0.0223833
-0.0196498
-0.0189316
-0.0171997
-0.0194266
-0.0235886
-0.0196683
-0.0206556
-0.0195494
-0.0153574
-0.0140955
-0.0127863
-0.0134572
-0.0141376
-0.012856
-0.010637
-0.0114993
-0.0124535
-0.0135014
-0.0126354
-0.0128395
-0.0110903
-0.0113599
-0.0116182
-0.0138361
-0.0129881
-0.0110549
-0.0110251
-0.00789675
-0.00767706
-0.00938238
-0.0090364
-0.00566771
-0.00630699
-0.00798435
-0.00972629
-0.00955302
-0.00847625
-0.00849817
-0.00761115
-0.00779855
-0.00503624
-0.00529489
-0.00554302
-0.00575
-0.00588902
-0.00493966
-0.0048899
-0.000737308
-0.000489283
-0.00316263
-0.00478198
-0.00537721
-0.00498039
-0.0046227
-0.0023314
0.000872927
-2.18017e-005
-1.80715e-005
0.000891582
0.00172397
0.00350362
0.00126029
0.00102604
-0.000167799
-0.00329365
-0.00433044
-0.00426543
-0.00109547
-0.000827309
-0.0034773
-0.00406984
-0.00663488
-0.00920506
-0.00181228
-0.000484541
-0.00124359
-0.000102987
0.000933509
0.0018723
0.00172929
0.00252839
0.00229925
0.0020744
0.000886112
-0.000236707
0.0017288
0.00479732
0.00597386
0.00225295
0.00361912
0.00304864
-0.000488321
-2.49107e-005
0.000405827
-0.000225911
-0.000943933
0.000236318
0.00130934
0.00128003
0.0021632
0.000982135
0.00176641
0.00354913
0.00236369
0.00424053
0.0052043
0.00527139
0.00544832
0.00573111
0.00310562
-0.0014512
-0.00196899
-0.000480852
0.00297987
0.00338261
-0.000297793
0.000921377
0.00103262
0.00503898
0.00495366
0.00379857
0.00560226
0.0043973
0.00221709
0.00309267
0.00304996
0.00210719
0.000273029
-0.00145414
-0.00108602
-0.00164323
0.000846677
0.000351756
0.00183864
0.00327572
0.00263613
0.00490027
0.00305764
0.00310783
0.00306065
-6.4841e-005
-0.00124217
-0.00543984
-0.00862437
-0.00576319
-0.00382762
-0.00179575
0.00134528
0.0055981
0.0069547
0.0103971
0.014899
0.0174284
0.0239506
0.0254311
0.0278396
0.0301518
0.030353
0.0364389
0.0444164
0.0523034
0.0541262
0.0559174
0.0557123
0.0535462
0.0524508
0.0534513
0.0575644
0.0567963
0.0551417
0.0565847
0.0561
0.0556552
0.0552142
0.0547399
0.0541986
0.0515622
0.0458118
0.0449387
0.0429463
0.0418493
0.0406726
0.0444491
0.0522166
0.0550141
0.0548779
0.0568377
0.0589143
0.0591173
0.0604443
0.0618808
0.0644021
0.0659752
0.0645618
0.060122
0.0566182
0.0560188
0.0533013
0.0514547
0.0514804
0.0523922
0.053215
0.0499823
0.0427326
0.0425064
0.0403417
0.0382714
0.0373189
0.0354967
0.0368048
0.0362307
0.0357504
0.036331
0.0359332
0.0315156
0.0310381
0.0294664
0.0267751
0.02495
0.02499
0.0259069
0.0237245
0.0214762
0.0212016
0.0229435
0.0237431
0.0236363
0.0236498
0.0227991
0.0210863
0.0205001
0.018017
0.0186035
0.0222192
0.018821
0.0183663
0.0198183
0.0201486
0.0233407
0.0243913
0.0243105
0.025121
0.025856
0.0255558
0.0252645
0.0270253
0.0268767
0.0288485
0.0309593
0.028214
0.0306038
0.0301069
0.0286903
0.0283132
0.0279305
0.0294978
0.0269751
0.0283307
0.0295447
0.0276104
0.0265353
0.02334
0.0270572
0.0267279
0.0263977
0.0291126
0.0279144
0.0258362
0.0218999
0.0211136
0.0194711
0.0149523
0.010525
0.00414804
-0.00622508
-0.0176415
-0.0321445
-0.0457695
-0.0545398
-0.0644647
-0.0785385
-0.0877414
-0.0940406
-0.102394
-0.107754
-0.106073
-0.106307
-0.108418
-0.107384
-0.101195
-0.0888563
-0.0813878
-0.0698226
-0.0462035
-0.0225781
0.00200509
0.028501
0.0508726
0.0790943
0.105155
0.132058
0.167824
0.202486
0.237086
0.277674
0.303302
0.312016
0.323851
0.335835
0.347978
0.355276
0.361712
0.364255
0.366863
0.361488
0.340081
0.310594
0.274986
0.226228
0.183305
0.142218
0.0969837
0.0646355
0.0412178
0.0277834
0.0163871
0.00508019
-0.0150959
-0.0401141
-0.060964
-0.086653
-0.102205
-0.112658
-0.125059
-0.145462
-0.16492
-0.17448
-0.183181
-0.191045
-0.199076
-0.208265
-0.216584
-0.223992
-0.22544
-0.227875
-0.236245
-0.241505
-0.248621
-0.258577
-0.265369
-0.273014
-0.278542
-0.289995
-0.300424
-0.303881
-0.301415
-0.303068
-0.306869
-0.306832
-0.309955
-0.311219
-0.316593
-0.319034
-0.317492
-0.317914
-0.318255
-0.321475
-0.320547
-0.323461
-0.328221
-0.332849
-0.333378
-0.327854
-0.319324
-0.310839
-0.303444
-0.290174
-0.277053
-0.262089
-0.244275
-0.226589
-0.207997
-0.195456
-0.184917
-0.167333
-0.153662
-0.138868
-0.126932
-0.116845
-0.104616
-0.0912662
-0.0798298
-0.0703488
-0.0568697
-0.0444385
-0.0340963
-0.0288754
-0.0227967
-0.0148666
-0.00707722
-0.00140661
0.00217842
0.0067192
0.00926109
0.0138491
0.0155233
0.0203152
0.0232444
0.0263169
0.0265242
0.0258445
0.0242446
0.0256836
0.0331172
0.0335017
0.0337983
0.0349768
0.0340184
0.0349179
0.037684
0.0383384
0.0389136
0.0374493
0.0339891
0.0375754
0.0372464
0.0390316
0.0389489
0.0370032
0.0381856
0.0364746
0.0368383
0.0382375
0.0386297
0.0379729
0.0382303
0.0363732
0.0343842
0.0352589
0.0340063
0.0346475
0.0352143
0.0327452
0.0322821
0.032866
0.0315331
0.0313111
0.0312166
0.0302536
0.030413
0.0286736
0.0330044
0.0323676
0.0327222
0.0340282
0.0342501
0.0343609
0.0333445
0.0341971
0.0329278
0.0325573
0.0321163
0.0286422
0.0281753
0.0307551
0.0304166
0.0271864
0.0300802
0.0271017
0.0262416
0.027479
0.0277837
0.0311188
0.0324445
0.0287218
0.0239161
0.024001
0.024961
0.026793
0.0285067
0.028123
0.0276723
0.0251913
0.0247194
0.0242952
0.0219521
0.0247157
0.0246011
0.0236111
0.0247364
0.0259563
0.0252406
0.025553
0.0268542
0.0261064
0.0262761
0.0263383
0.0262783
0.0270936
0.0267938
0.0263997
0.0259413
0.0244548
0.024979
0.0265516
0.0252055
0.0249654
0.0258455
0.0238481
0.0229635
0.0221705
0.0214392
0.0217338
0.0220156
0.0222478
0.024398
0.0244422
0.0253668
0.0251696
0.0248605
0.0274604
0.0259987
0.025511
0.0230351
0.0246076
0.0252604
0.0230173
0.023892
0.0218865
0.021991
0.0221851
0.0194394
0.022719
0.0269865
0.025206
0.0253458
0.0263822
0.0273016
0.0291018
0.0287923
0.0293932
0.0299331
0.0284467
0.0259709
0.0275417
0.0301907
0.0299416
0.0308085
0.0307939
0.0278887
0.0270728
0.0273179
0.0295895
0.030851
0.0290666
0.0322049
0.0322422
0.0361648
0.03497
0.0306664
0.034273
0.0338178
0.0323347
0.0308602
0.03143
0.0330756
0.0348212
0.0356814
0.0366593
0.0347468
0.0349249
0.0361658
0.0394357
0.0416984
0.0399179
0.0410626
0.042108
0.0430396
0.0448538
0.0435586
0.0441724
0.0457227
0.0462432
0.0427705
0.0393402
0.0399841
0.0407268
0.0405835
0.0405584
0.0386442
0.0388227
0.0380667
0.0383428
0.0396145
0.0388457
0.0390041
0.0390647
0.0400118
0.0408409
0.0355589
0.0371833
0.0417411
0.0362659
0.0317942
0.0373624
0.0370034
0.0327429
0.0325971
0.0325712
0.0316586
0.029842
0.0300948
0.0313835
0.0306713
0.0279216
0.0291009
0.0291831
0.0281515
0.0230001
0.0237346
0.0283724
0.0259402
0.0244715
0.0230034
0.0235731
0.0222141
0.0179534
0.0178079
0.0187841
0.0158765
0.0150683
0.0123333
0.0116379
0.012945
0.0112174
0.00942096
0.0105284
0.0105219
0.0083947
0.00715159
0.0078088
0.0103925
0.00693595
0.000476262
0.00605088
0.00669446
0.00443507
0.00629133
0.00427076
0.00136889
0.00156976
0.00184766
0.00216952
0.00249808
-0.00120463
-0.000973594
-0.000837217
0.00118547
-0.000913474
-0.00113022
-0.00044943
-0.00184567
-0.00328603
-0.00473325
-0.00414921
-0.00549868
-0.00575272
-0.00489153
-0.00690634
-0.00780041
-0.0075886
-0.00829592
-0.00895516
-0.00860372
-0.01028
-0.0130196
-0.0128522
-0.0127981
-0.0138664
-0.0130544
-0.0113475
-0.0117208
-0.0141416
-0.0145726
-0.0149755
-0.0153143
-0.0135593
-0.0126894
-0.013695
-0.0165784
-0.0163537
-0.0140453
-0.0126855
-0.0123116
-0.012962
-0.0166731
-0.0184753
-0.01539
-0.0144272
-0.0145849
-0.0138494
-0.0141967
-0.0165944
-0.0190054
-0.0163912
-0.0187153
-0.0189472
-0.0170655
-0.0200591
-0.0159295
-0.0166897
-0.0213634
-0.0189829
-0.0195856
-0.0172101
-0.0168929
-0.0186648
-0.0165479
-0.0195534
-0.0166804
-0.011916
-0.0142365
-0.0176102
-0.0200003
-0.0183681
-0.0176768
-0.0188951
-0.0180005
-0.0199813
-0.0208379
-0.0215825
-0.0212383
-0.0178366
-0.0144141
-0.0170098
-0.0176608
-0.016399
-0.0182475
-0.0162188
-0.0143132
-0.0155188
-0.0158132
-0.0161649
-0.0155369
-0.0138898
-0.0131859
-0.013393
-0.0134873
-0.0154561
-0.0152986
-0.0160262
-0.0156614
-0.0142355
-0.0127854
-0.0103505
-0.0129686
-0.0156726
-0.0134868
-0.0114248
-0.0154879
-0.0166653
-0.013935
-0.0142656
-0.0146196
-0.0129574
-0.0122404
-0.0114353
-0.0135175
-0.0154731
-0.0133005
-0.0120105
-0.0116248
-0.0071747
-0.0076974
-0.00523289
-0.00381988
-0.00749214
-0.00527519
-0.00318354
-0.00521935
-0.00337234
-0.00162059
-0.00293272
-0.00227104
-0.00159512
-0.00286574
-0.00204874
-0.00211835
-0.00105965
-0.00287016
-0.00456016
-0.00115154
-0.000675607
-0.0011702
0.000323912
0.00176712
0.000124785
-0.000629499
0.00348892
0.00547738
0.00334589
0.00311608
-0.000180773
0.00149332
0.00217954
0.000918088
0.00274423
-0.000315159
0.000755717
0.00196016
0.00228861
0.00271944
0.000220928
0.00575455
0.00627878
0.00675294
0.00714106
0.00441547
0.00655957
0.0055696
0.00745506
0.00723773
0.00694956
0.00662956
0.00632007
0.00806264
0.00889403
0.00584243
0.00392453
0.00514414
0.00449186
0.00494583
0.0094739
0.00803675
0.00859144
0.00809566
0.00751198
0.00981151
0.0119769
0.012004
0.00990186
0.00969244
0.00940819
0.00908916
0.00777901
0.00852075
0.0123527
0.0113047
0.0103948
0.0106275
0.0109935
0.00947062
0.0110255
0.0146175
0.0122021
0.0107351
0.0111775
0.012499
0.0126811
0.0107191
0.0126223
0.0124133
0.00712585
0.00680138
0.00648527
0.00522242
0.00405272
0.00300713
0.00310464
0.00135036
-0.000265146
0.000235085
0.00781687
0.0114382
0.00605261
0.00261383
0.00708047
0.00442059
0.0026144
0.00765649
0.00555653
0.0073382
0.011037
0.015697
0.0173663
0.016092
0.016916
0.0178705
0.0199751
0.026235
0.0266403
0.0271663
0.0327767
0.0364266
0.0400673
0.0436506
0.0481338
0.0524838
0.0526804
0.0537183
0.0566078
0.0583739
0.0590538
0.0566935
0.0553429
0.0520513
0.0518627
0.0508112
0.0469177
0.0481876
0.0496109
0.050162
0.0518031
0.0494868
0.0461613
0.0457749
0.045282
0.045647
0.046848
0.0488794
0.0527522
0.055493
0.0551415
0.0557466
0.0593614
0.0600389
0.0608259
0.0617588
0.0598595
0.0581339
0.0565705
0.0521421
0.0548079
0.0555181
0.0512182
0.0508544
0.0473788
0.0487541
0.0489578
0.0439838
0.0418433
0.0405638
0.0361864
0.0347622
0.0343469
0.0329959
0.0377584
0.035673
0.0337631
0.0320349
0.0274766
0.0280597
0.0307418
0.0304708
0.0281894
0.026841
0.0243753
0.0247533
0.024951
0.0239624
0.0227993
0.0214908
0.0170804
0.0176214
0.0211727
0.0187923
0.0195315
0.0204302
0.0195125
0.0207847
0.0182341
0.0208305
0.0235292
0.022275
0.023008
0.0186686
0.0182043
0.0255746
0.0227555
0.0207412
0.0215447
0.0221975
0.0227458
0.0242463
0.0237608
0.0203495
0.0220657
0.0219502
0.0200273
0.0213026
0.0237618
0.0263728
0.025088
0.0238492
0.025593
0.0252578
0.024789
0.0251451
0.0273015
0.0262534
0.0260157
0.0256221
0.0221219
0.0205748
0.0180454
0.016597
0.014285
0.00915153
0.00322125
-0.00350142
-0.0130326
-0.0224076
-0.0326773
-0.0439032
-0.0551516
-0.0654866
-0.0759643
-0.0856265
-0.0924973
-0.0995801
-0.103857
-0.103292
-0.101833
-0.104415
-0.104974
-0.0974439
-0.0837695
-0.077909
-0.0708398
-0.0535598
-0.0320877
-0.00946126
0.0182665
0.0410321
0.0637675
0.0924073
0.118895
0.15419
0.18827
0.222132
0.259799
0.287309
0.300716
0.311085
0.323483
0.333974
0.343615
0.349448
0.350497
0.348764
0.346231
0.32986
0.304594
0.274368
0.231112
0.188757
0.149245
0.102532
0.067597
0.0424388
0.0270809
0.0215667
0.0139554
-0.00268502
-0.0292855
-0.0497826
-0.0751243
-0.0952747
-0.106217
-0.117956
-0.136516
-0.155939
-0.16628
-0.173604
-0.182973
-0.193446
-0.201071
-0.20888
-0.216887
-0.221085
-0.223451
-0.227941
-0.233504
-0.24308
-0.25361
-0.263041
-0.269329
-0.276446
-0.289382
-0.299143
-0.300755
-0.300256
-0.304695
-0.308128
-0.308609
-0.308187
-0.308903
-0.313782
-0.310832
-0.309048
-0.310404
-0.310864
-0.314381
-0.312905
-0.316384
-0.319771
-0.324031
-0.327142
-0.324094
-0.316895
-0.306568
-0.295145
-0.282671
-0.269192
-0.251758
-0.235412
-0.218187
-0.202107
-0.190181
-0.173403
-0.158753
-0.145198
-0.136698
-0.122206
-0.105676
-0.0940651
-0.0843397
-0.0734767
-0.0624669
-0.0533154
-0.0440413
-0.0336753
-0.0262571
-0.0198313
-0.0124431
-0.00713396
-0.00293754
0.00312355
0.00803991
0.0118162
0.0134703
0.0150319
0.016539
0.0200351
0.0225641
0.0231665
0.0238752
0.0217124
0.0236875
0.0237965
0.0240223
0.0263365
0.0297023
0.0300779
0.0294206
0.0306911
0.0308569
0.0318961
0.0317988
0.0315686
0.0312215
0.032785
0.0302949
0.0297919
0.0293176
0.0249106
0.0236023
0.0234146
0.0253576
0.0264286
0.0266125
0.0268829
0.0282052
0.0285396
0.0298453
0.0290842
0.0292248
0.0292451
0.0291347
0.0298962
0.0295442
0.0291045
0.028611
0.030103
0.0306208
0.032202
0.0318778
0.03067
0.0295887
0.0276313
0.0277833
0.0270196
0.0273066
0.0276063
0.0278791
0.0270884
0.0282037
0.0282039
0.0280788
0.0278307
0.0284735
0.0280318
0.0255381
0.0250296
0.0255451
0.0241205
0.0237858
0.0225621
0.0224594
0.0224758
0.0215979
0.0218018
0.0230559
0.0233234
0.0235667
0.0247503
0.0238447
0.0248291
0.0256933
0.026439
0.0270794
0.0256376
0.0241446
0.0236362
0.0241496
0.0247197
0.0253759
0.0241388
0.0250186
0.025014
0.0251123
0.0242908
0.0235189
0.0227611
0.0229808
0.0221435
0.0212205
0.0221915
0.0200465
0.0207869
0.0214253
0.0209843
0.0214938
0.0209887
0.020505
0.0210764
0.019731
0.0174885
0.0173585
0.0173395
0.0174193
0.0175759
0.0187801
0.0179978
0.0201942
0.0203362
0.0203965
0.0213555
0.0202038
0.0199426
0.0195837
0.0191487
0.0186663
0.0181696
0.0176934
0.0192699
0.0179264
0.017682
0.0195461
0.0195175
0.0205845
0.022726
0.0239136
0.0231147
0.023295
0.0244226
0.0224707
0.0214204
0.0232625
0.0259987
0.026641
0.0272107
0.0247358
0.0242488
0.0227829
0.0243695
0.0260348
0.0267971
0.0276652
0.0286374
0.0277018
0.0298372
0.0320158
0.0322055
0.0323732
0.034488
0.0345245
0.0354648
0.0363009
0.0380348
0.0376789
0.0372541
0.0377882
0.0383131
0.0388614
0.0404635
0.0401443
0.038921
0.037801
0.0367816
0.0368503
0.0369859
0.039161
0.0413443
0.0415038
0.0426101
0.0426389
0.0435737
0.0424072
0.0431423
0.0427915
0.0413758
0.0409225
0.0404627
0.0390282
0.039648
0.0393462
0.040139
0.0400332
0.0400257
0.0391038
0.0392462
0.0394254
0.0386104
0.0377698
0.0348744
0.0349008
0.0368336
0.0376667
0.038404
0.039059
0.0386531
0.0372138
0.0357718
0.0363581
0.0350009
0.0357227
0.0365385
0.036454
0.0344648
0.0345573
0.0367101
0.0368957
0.0350838
0.0322435
0.0313469
0.0303719
0.0283045
0.0271396
0.0268822
0.0275467
0.0261549
0.0237347
0.0223162
0.0229297
0.0196024
0.0183552
0.0182014
0.0161451
0.0171805
0.0172933
0.0194612
0.020657
0.0188505
0.0180118
0.0171144
0.0161375
0.0170687
0.0159048
0.0166521
0.017326
0.0199492
0.0195498
0.0161578
0.0148023
0.0145091
0.0152977
0.0151797
0.0161575
0.0162239
0.0153631
0.0135521
0.0107627
0.00896484
0.00912961
0.00723196
0.00725327
0.00818325
0.00802092
0.00677457
0.00946097
0.00910373
0.00673075
0.00637138
0.00505363
0.00280136
0.000631877
0.00155435
0.002569
0.00166702
0.000831327
0.00303839
0.00326069
0.00246929
0.00463676
0.00173994
0.000762117
0.00169481
0.00153873
-0.0016965
-0.00599343
-0.00832842
-0.00967381
-0.0100006
-0.0102816
-0.011494
-0.0146218
-0.0136574
-0.0126023
-0.0134669
-0.0142695
-0.0140348
-0.013791
-0.0165671
-0.0163903
-0.0162826
-0.0142592
-0.0123264
-0.0124813
-0.0117122
-0.00899978
-0.00931863
-0.0096403
-0.00493589
-0.00717889
-0.0103482
-0.0104301
-0.0104194
-0.0113199
-0.0131444
-0.0149129
-0.0146511
-0.0123874
-0.0111499
-0.0109643
-0.0118509
-0.0108228
-0.0108845
-0.0120313
-0.01325
-0.0145205
-0.0138168
-0.0131105
-0.0163733
-0.0205798
-0.0227106
-0.0247532
-0.0267039
-0.0265677
-0.0263583
-0.0230961
-0.023807
-0.0235192
-0.0252612
-0.0250583
-0.0239304
-0.0258896
-0.0249396
-0.0230748
-0.0202808
-0.0185361
-0.0178142
-0.0180863
-0.019324
-0.0195024
-0.0196021
-0.0206114
-0.0225275
-0.0213565
-0.0211131
-0.0198189
-0.0195002
-0.0211861
-0.019905
-0.0176818
-0.0175358
-0.0164785
-0.0145125
-0.0156315
-0.0138205
-0.0140579
-0.0163167
-0.0165683
-0.016784
-0.019939
-0.020014
-0.0199974
-0.0208865
-0.0196875
-0.0164152
-0.0180914
-0.0167432
-0.0133999
-0.0150903
-0.01384
-0.0126688
-0.00958867
-0.00960241
-0.0117038
-0.00887791
-0.0091024
-0.00934981
-0.0105903
-0.00979445
-0.00993614
-0.0089951
-0.00895895
-0.0108246
-0.0105984
-0.0102956
-0.0119392
-0.00955694
-0.00817938
-0.00983654
-0.0085552
-0.00835611
-0.011252
-0.0102464
-0.00733293
-0.00849592
-0.00871222
-0.00595327
-0.00718777
-0.00738496
-0.00751756
-0.00756437
-0.00251228
-0.00235762
-0.00210676
-0.000775557
0.000612315
0.00202763
0.00343842
0.00281305
0.0031233
0.0033472
0.00347131
0.00649204
0.00541611
0.00825977
0.0120475
0.0108093
0.00757793
0.00538521
0.00725965
0.00722354
0.0072906
0.00546452
0.00473856
0.00609628
0.00451313
0.00395866
0.00339954
0.00280285
0.00613937
0.00738646
0.00953021
0.0115667
0.0135027
0.0133545
0.0111467
0.0119098
0.0116772
0.0124825
0.0123555
0.0123198
0.0123901
0.0115712
0.0078569
0.00723089
0.0076684
0.00813858
0.00960741
0.0100409
0.0104085
0.00968562
0.00885652
0.00691556
0.00486792
0.00372916
0.00552392
0.00528358
0.00504308
0.0078376
0.00969925
0.0146539
0.0167185
0.0178994
0.0191914
0.0205786
0.0220357
0.0225305
0.0230269
0.0264887
0.0308831
0.0331837
0.0383734
0.0394456
0.0424052
0.049268
0.0540595
0.0568123
0.0575626
0.0593468
0.0621982
0.0641439
0.0602016
0.0553782
0.054669
0.0550585
0.050522
0.0520274
0.0525389
0.0500199
0.0494367
0.0457618
0.0439761
0.0460714
0.046051
0.0459295
0.0507309
0.056487
0.059234
0.0600088
0.0598451
0.060771
0.0598056
0.0579577
0.0602249
0.0645939
0.0670421
0.0675391
0.0640499
0.0575376
0.0539676
0.0513111
0.0505476
0.0496672
0.0506712
0.0505723
0.0503926
0.048162
0.044915
0.0436873
0.0435131
0.0434209
0.0424317
0.0435564
0.0437949
0.0401362
0.0405594
0.0420358
0.0425319
0.0430122
0.0414429
0.0397947
0.039046
0.0351847
0.0322094
0.0301296
0.0279649
0.0267429
0.0254969
0.0252622
0.0270733
0.02496
0.0239448
0.0260406
0.0282498
0.0305637
0.0329638
0.036423
0.0329083
0.031384
0.0338151
0.0341714
0.0314294
0.0305751
0.0326055
0.0315285
0.0283627
0.0251347
0.0268774
0.0256264
0.023417
0.0242801
0.0242399
0.024311
0.0264974
0.0277919
0.0261765
0.0276244
0.0281025
0.0315748
0.0330057
0.0323633
0.0366228
0.0367687
0.0377963
0.0367122
0.0385338
0.0382876
0.0360066
0.0357272
0.0294856
0.0263142
0.024239
0.0222766
0.0224333
0.0187035
0.0120706
0.00750835
0.000983406
-0.0115415
-0.022104
-0.0347385
-0.0484725
-0.0613242
-0.0743001
-0.086395
-0.0995918
-0.110864
-0.115176
-0.115489
-0.115765
-0.118968
-0.122069
-0.11705
-0.105906
-0.0986415
-0.0932757
-0.0768368
-0.0583608
-0.0368872
-0.00845573
0.0128978
0.0351445
0.0632655
0.089254
0.119116
0.149871
0.180546
0.218181
0.248815
0.26249
0.271243
0.283101
0.295084
0.308197
0.318437
0.324785
0.327214
0.331688
0.319166
0.301607
0.280972
0.24023
0.200356
0.167343
0.126193
0.0899265
0.0655723
0.0481711
0.0377686
0.0254112
0.00814033
-0.0130119
-0.0350263
-0.0558981
-0.0716376
-0.0862683
-0.0978253
-0.116351
-0.141894
-0.156497
-0.167201
-0.176035
-0.185012
-0.195135
-0.201387
-0.208742
-0.213162
-0.216601
-0.221013
-0.227354
-0.236587
-0.244689
-0.251648
-0.257468
-0.260166
-0.264773
-0.273329
-0.280879
-0.288471
-0.291145
-0.288935
-0.286863
-0.287937
-0.292149
-0.295479
-0.298894
-0.304353
-0.30281
-0.299222
-0.298545
-0.299749
-0.302814
-0.302736
-0.304524
-0.309202
-0.314804
-0.313375
-0.30896
-0.305603
-0.299342
-0.292207
-0.282214
-0.271365
-0.256647
-0.235034
-0.21649
-0.202973
-0.189438
-0.174842
-0.157149
-0.144334
-0.133382
-0.123296
-0.112089
-0.100787
-0.090426
-0.0780473
-0.0656935
-0.0544042
-0.0442129
-0.0351429
-0.0302056
-0.0223995
-0.0127098
-0.00711048
-0.00456691
-0.00403954
0.00151238
0.006127
0.012836
0.0166615
0.0186135
0.0226894
0.0248739
0.0291411
0.032457
0.0367828
0.0380788
0.0383082
0.038441
0.0374565
0.0373461
0.0391134
0.0387744
0.0383554
0.0388903
0.0374175
0.0389757
0.0376002
0.0353196
0.0331523
0.0341055
0.0361742
0.0383422
0.0395831
0.0378633
0.0371451
0.0373906
0.0365658
0.0366436
0.0366066
0.034449
0.0341768
0.0338073
0.0323675
0.0358912
0.0344158
0.033978
0.0346108
0.0333397
0.0341804
0.0331373
0.032203
0.0293591
0.0295781
0.0298265
0.0290678
0.0292663
0.0293908
0.0314174
0.0323322
0.0371323
0.0378263
0.0374331
0.0369798
0.0334991
0.0300262
0.0315951
0.0312359
0.0279712
0.027814
0.0287667
0.0308208
0.0319578
0.0351511
0.0363685
0.0375753
0.0367378
0.0358266
0.0358193
0.0327033
0.0324765
0.0321477
0.0337361
0.0332688
0.0287783
0.024299
0.0238641
0.0215024
0.0212356
0.0200757
0.0180244
0.0180721
0.0182
0.0203809
0.0225826
0.029771
0.0299131
0.0259801
0.0259501
0.0248108
0.0265608
0.0292097
0.0287769
0.0262898
0.0227811
0.0172854
0.0208362
0.0214628
0.0201871
0.0220214
0.0189671
0.0200144
0.0221436
0.0213269
0.0225309
0.0237199
0.0218597
0.0179203
0.0148794
0.0167246
0.019455
0.0170811
0.0196235
0.0201111
0.0235786
0.0240625
0.0265978
0.0252143
0.0239339
0.0257682
0.0257175
0.0257709
0.0249071
0.0240965
0.0233043
0.0264937
0.0266301
0.0256837
0.0246327
0.0244657
0.0261825
0.0257945
0.0253234
0.0217988
0.0242558
0.0237311
0.0232601
0.0238727
0.0255907
0.0294256
0.0293776
0.0294352
0.0305764
0.0297708
0.0299829
0.0351753
0.0353128
0.0313652
0.0303104
0.0301369
0.0308452
0.0314473
0.0309657
0.0334314
0.0358806
0.0343513
0.0308789
0.0284935
0.0292164
0.0280586
0.0270195
0.0290867
0.0342376
0.0404419
0.0416636
0.0418648
0.0400092
0.0390661
0.035013
0.0318381
0.0325419
0.0331368
0.0326465
0.0301029
0.0305433
0.0280068
0.0265305
0.0251454
0.026874
0.0307279
0.0307063
0.0307962
0.0319731
0.0322042
0.032451
0.0316732
0.0288329
0.0278981
0.028846
0.0256656
0.0263586
0.0279394
0.0284337
0.029876
0.028306
0.0267647
0.0292907
0.0299159
0.0326628
0.0335421
0.0345511
0.0326743
0.0288848
0.0321468
0.0314198
0.0316618
0.0308341
0.0269045
0.025851
0.0276638
0.029347
0.0309172
0.0294027
0.0278398
0.0242699
0.017735
0.0192738
0.0219182
0.0206903
0.0205992
0.0186406
0.0217972
0.0220406
0.0183333
0.019633
0.0208966
0.0250848
0.0251657
0.0201176
0.0189314
0.0206118
0.020177
0.0186569
0.0180896
0.0155184
0.0109871
0.0115358
0.0121971
0.010993
0.0109321
0.0150093
0.0142059
0.011491
0.0108249
0.010163
0.0114601
0.00567509
0.00277435
0.00173591
-0.00244852
-0.00577275
-0.00421647
-0.00374705
-0.0023229
-0.00589774
-0.0084253
-0.00686368
-0.00617934
-0.00435065
-0.00437014
-0.00624541
-0.00899854
-0.0116638
-0.0112842
-0.0119071
-0.0145797
-0.0173445
-0.0172348
-0.0182712
-0.01646
-0.0127917
-0.0112427
-0.0117772
-0.0153516
-0.0159177
-0.0164284
-0.0198414
-0.0181239
-0.0152559
-0.0122316
-0.0130609
-0.013768
-0.0103896
-0.0109703
-0.0105593
-0.0102049
-0.0109498
-0.0138271
-0.0188568
-0.0210439
-0.0233774
-0.0218315
-0.0193679
-0.0179397
-0.0144963
-0.0149882
-0.0133725
-0.0106164
-0.0127013
-0.0156242
-0.0203986
-0.0210526
-0.022626
-0.0241666
-0.0217252
-0.0183506
-0.0140848
-0.0109588
-0.01499
-0.0171805
-0.0145163
-0.0149688
-0.0144976
-0.0140546
-0.0135887
-0.0160508
-0.0153988
-0.0146016
-0.0136422
-0.0135196
-0.0152488
-0.0138595
-0.0133929
-0.0128979
-0.0114262
-0.0110271
-0.0117428
-0.0126042
-0.0146277
-0.0158139
-0.0121465
-0.00959483
-0.0101162
-0.0116607
-0.0101762
-0.00861276
-0.00892829
-0.00709234
-0.00608931
-0.00792004
-0.00960191
-0.00916693
-0.00565846
-0.00312691
-0.00362501
-0.00220268
9.80959e-005
0.0002474
-0.00376981
-0.00595223
-0.00528195
-0.00772621
-0.0102407
-0.00877382
-0.0112718
-0.00768391
-0.00396752
-0.00409242
-0.0060442
-0.00582565
-0.00645637
-0.0089709
-0.00841537
-0.00684277
-0.00530768
-0.00486102
-0.00554505
-0.00638914
-0.00940682
-0.0105944
-0.00593081
-0.00437996
-0.00189419
0.00158087
-0.00289925
-0.00328349
-0.00253001
-0.00061028
-0.000512027
-0.00224067
-0.00381886
-0.00128405
-0.000684723
-0.00307587
-0.00551361
-0.00304942
0.00127523
0.00243285
0.00341246
0.00622073
0.00788148
0.00343311
0.00492487
0.00641226
0.000951481
-0.00140641
-0.000620204
0.0023376
0.00247784
0.00179335
0.00125961
0.00283723
0.0044759
0.00411918
0.00471002
0.00619645
0.00753681
0.00770378
0.00868717
0.00949498
0.00915267
0.00870069
0.00819053
0.00867976
0.0102264
0.00688308
0.00469172
0.00567947
0.00885626
0.00821357
0.009725
0.0123489
0.0100325
0.00971669
0.0143422
0.0138556
0.0112141
0.01139
0.0103738
0.0101749
0.010821
0.0103554
0.00983276
0.0113137
0.00885895
0.00252291
0.0043486
0.00436356
0.00657704
0.00697875
0.00553975
0.00721517
0.00894872
0.00467804
0.00334072
0.00288066
0.000253756
-0.00056775
-0.000592351
0.00219177
0.00581569
0.00832666
0.00978331
0.01425
0.0177904
0.0204612
0.0213065
0.0223529
0.0246075
0.0260567
0.0296677
0.0323917
0.0371686
0.0399329
0.04362
0.0491729
0.0505477
0.0507178
0.0506767
0.0554387
0.0560382
0.0555257
0.056963
0.0544172
0.0559541
0.0606319
0.0624954
0.0625711
0.0608644
0.0583591
0.059019
0.0567914
0.0526121
0.0504119
0.0501233
0.0506876
0.0520607
0.0552171
0.058153
0.0618865
0.0634555
0.0639144
0.0643286
0.0637678
0.0622998
0.0619833
0.0618623
0.0609618
0.0622853
0.061814
0.0615092
0.0613154
0.0541657
0.0509888
0.0517155
0.0522866
0.052658
0.0478051
0.044725
0.0424374
0.0419825
0.0414174
0.0398102
0.0402335
0.0417571
0.0394411
0.0373299
0.0364476
0.0347959
0.0333537
0.031079
0.0299133
0.029787
0.0296267
0.0283619
0.0289323
0.0282938
0.0274225
0.0283177
0.0300015
0.0325174
0.0319253
0.0292958
0.0287032
0.0272185
0.0239021
0.0237981
0.0239298
0.0232974
0.0218779
0.0216272
0.0214842
0.0223772
0.0242307
0.024973
0.0245427
0.0228952
0.025007
0.0258786
0.0255337
0.0260177
0.0273928
0.0267322
0.0271129
0.0246079
0.0222791
0.0251715
0.0253084
0.0236892
0.0242892
0.0270618
0.0279437
0.02786
0.0287322
0.0314859
0.0320579
0.0314023
0.0314957
0.0293389
0.0299574
0.0283989
0.0277288
0.0260238
0.0253643
0.0208266
0.0164753
0.0133566
0.00449422
-0.00511356
-0.0194938
-0.0316963
-0.0427884
-0.0548482
-0.0669576
-0.0791936
-0.0906211
-0.100286
-0.107212
-0.112396
-0.11181
-0.112402
-0.113104
-0.113837
-0.10652
-0.0920735
-0.0854337
-0.076555
-0.0584155
-0.039019
-0.0153944
0.0124066
0.0333149
0.0562498
0.0871279
0.114871
0.148415
0.185714
0.222747
0.260519
0.290061
0.301426
0.307681
0.316907
0.331186
0.340597
0.348206
0.356062
0.361187
0.360579
0.344211
0.324027
0.293957
0.245917
0.199817
0.164577
0.122129
0.0844253
0.0614457
0.0441974
0.0347149
0.0250559
0.010295
-0.0114845
-0.0371991
-0.0637728
-0.0831446
-0.0972737
-0.109143
-0.126761
-0.152163
-0.167403
-0.175552
-0.184689
-0.194891
-0.205232
-0.212768
-0.221539
-0.223557
-0.228815
-0.236278
-0.242894
-0.251597
-0.258312
-0.263964
-0.268485
-0.272822
-0.274937
-0.285818
-0.293475
-0.296939
-0.302261
-0.301505
-0.300741
-0.300039
-0.303464
-0.305067
-0.306882
-0.312921
-0.316175
-0.317614
-0.318191
-0.322845
-0.326507
-0.328111
-0.332595
-0.334911
-0.337026
-0.333928
-0.329627
-0.32415
-0.313544
-0.304866
-0.29218
-0.278552
-0.260041
-0.239693
-0.222539
-0.209593
-0.195846
-0.181273
-0.16483
-0.149461
-0.137105
-0.127698
-0.116184
-0.104514
-0.0946588
-0.0826032
-0.0693537
-0.0589346
-0.050387
-0.0417642
-0.0341269
-0.0285369
-0.0200514
-0.0137172
-0.00656631
-0.000613153
0.00514704
0.00773745
0.0111974
0.0135784
0.0159395
0.0173412
0.0198399
0.0214823
0.023301
0.0253113
0.0285101
0.0288759
0.0323709
0.032945
0.0305405
0.0300972
0.0315592
0.0318797
0.0310258
0.0289814
0.0307487
0.0323483
0.0308168
0.0332033
0.0325645
0.0319595
0.0304432
0.0320622
0.0328496
0.0308219
0.0339775
0.0332973
0.0327459
0.0362757
0.0358312
0.0353545
0.0367909
0.0320941
0.0312307
0.0341835
0.0339535
0.0355593
0.0360352
0.0364279
0.0367919
0.0331841
0.0306583
0.03026
0.0310223
0.0309626
0.0320809
0.03236
0.030767
0.0312564
0.0327749
0.0322667
0.0326783
0.0319644
0.0320915
0.031042
0.0308149
0.0294269
0.0299098
0.0313081
0.0286741
0.0280631
0.0265279
0.0261136
0.0288536
0.0287663
0.028853
0.0300981
0.0294706
0.0279269
0.0284153
0.027881
0.0292719
0.0315429
0.0296608
0.0296072
0.0293804
0.0289954
0.0304827
0.0288848
0.0272525
0.0266398
0.0270983
0.028673
0.0283973
0.0282898
0.0283526
0.0285712
0.027916
0.0283448
0.0288076
0.0312511
0.0306241
0.0278818
0.0269911
0.0279331
0.0297055
0.0273225
0.0288133
0.0282192
0.0245899
0.0249779
0.0244342
0.024003
0.0257174
0.0225962
0.021642
0.022841
0.0231648
0.0265725
0.0280157
0.028442
0.0298009
0.0290485
0.0301515
0.028091
0.0268636
0.0264826
0.0269759
0.0283842
0.0297562
0.0301442
0.0285987
0.0261635
0.0268716
0.0277418
0.0287775
0.0319658
0.0302787
0.0266759
0.030109
0.0305261
0.0338771
0.0341185
0.0322171
0.033154
0.0309258
0.0305453
0.0340403
0.030451
0.0288253
0.029215
0.0276701
0.0302345
0.0309414
0.03281
0.0338436
0.0340296
0.0353399
0.0337345
0.035165
0.0345796
0.035928
0.0391665
0.0392624
0.0421968
0.0419668
0.0425855
0.0420808
0.0414926
0.040869
0.0402618
0.0387208
0.0392898
0.0400016
0.0398752
0.0389138
0.0351042
0.0364183
0.0378162
0.0382498
0.0406676
0.0400195
0.0402619
0.0393619
0.0393004
0.0390742
0.0376963
0.0361944
0.0366086
0.0359874
0.0353826
0.0348446
0.0354174
0.0371343
0.0360145
0.0350611
0.0342608
0.0335855
0.0359948
0.0374403
0.0378697
0.0382326
0.0374848
0.037593
0.037538
0.0383166
0.0379423
0.0384433
0.0388603
0.0372422
0.0346416
0.032109
0.0336889
0.0324146
0.0303055
0.0313647
0.0305791
0.0289201
0.030347
0.0298107
0.0292582
0.0296384
0.0279064
0.0240285
0.0209849
0.0227723
0.0264044
0.0269103
0.0243315
0.0227175
0.0221217
0.0205955
0.021184
0.0229211
0.0208263
0.0199026
0.0171361
0.0164978
0.0189461
0.017431
0.0168991
0.0142983
0.0115833
0.00972011
0.00968925
0.00848794
0.0081302
0.0106456
0.0100763
0.0104727
0.00888894
0.00737681
0.00598134
0.00473619
0.0036604
0.00375652
0.00101036
-0.000607714
-0.00413985
-0.00563652
-0.00415144
-0.00273623
-0.00343554
-0.00328284
-0.00329703
-0.00448064
-0.00481961
-0.00628462
-0.00883401
-0.0104178
-0.0119827
-0.0114767
-0.0128551
-0.0150838
-0.0151439
-0.0130322
-0.0147624
-0.0183638
-0.0188781
-0.0183553
-0.016849
-0.018411
-0.0200863
-0.0209092
-0.023899
-0.024059
-0.0233756
-0.0238194
-0.0233489
-0.0229138
-0.0244604
-0.0249366
-0.0242974
-0.0275086
-0.0285509
-0.0264211
-0.0271328
-0.0277148
-0.0282087
-0.0276644
-0.0271356
-0.0266741
-0.0263253
-0.0281232
-0.0280878
-0.0292225
-0.028514
-0.0269334
-0.0264392
-0.0249816
-0.0265067
-0.0269627
-0.0273043
-0.0284972
-0.0295218
-0.0283745
-0.0270683
-0.0266317
-0.0251055
-0.0235395
-0.0229869
-0.0224999
-0.021124
-0.0208937
-0.0178294
-0.016935
-0.0171978
-0.0175898
-0.0160704
-0.0145899
-0.016095
-0.0195335
-0.0198599
-0.0190392
-0.0200506
-0.0178894
-0.0155673
-0.0141117
-0.014563
-0.0149707
-0.0133883
-0.0118686
-0.0104578
-0.0111918
-0.0120923
-0.0131648
-0.0123981
-0.0137648
-0.0152247
-0.0177283
-0.0172215
-0.0166511
-0.0149696
-0.01514
-0.0131399
-0.010963
-0.0116204
-0.0111392
-0.00956027
-0.00693362
-0.00631406
-0.00675582
-0.00730726
-0.00700603
-0.00687533
-0.00692161
-0.00713392
-0.00648494
-0.00393348
-0.00142854
-0.00191434
-0.00333598
-0.00264465
-0.000802306
0.00021464
0.00141283
0.000781249
-0.000707786
-0.0010959
-0.000434498
0.0012203
0.0028131
0.0012945
0.0016259
0.000783389
-0.000239936
-0.000433203
-0.000768773
-0.00120492
0.000310157
-0.00116677
-0.00257959
-0.000878215
-0.00202347
9.0189e-006
0.00222649
0.0016182
0.00315634
0.0037988
0.000493193
0.00318194
0.00480816
0.00432111
0.00668106
0.00686327
0.00486036
0.00368299
0.00635909
0.00593123
0.0064523
0.00798042
0.00457319
0.00628201
0.00614723
0.00819417
0.00943057
0.00784565
0.00741111
0.00708393
0.00681058
0.00753232
0.0101909
0.00973421
0.0111214
0.0113267
0.0133424
0.0141791
0.0118651
0.0104433
0.0129675
0.0134971
0.012091
0.0118022
0.0106722
0.0127275
0.0129766
0.0164092
0.0169973
0.0136975
0.013455
0.0152098
0.015902
0.0144775
0.0128938
0.0141235
0.0151579
0.0140071
0.0136996
0.013279
0.0128006
0.010325
0.00791309
0.00961958
0.00948813
0.00954676
0.00880502
0.00925306
0.0108625
0.0105894
0.00737783
0.00816581
0.00989135
0.00749845
0.00494236
0.00219409
0.000243391
0.00109995
0.00179253
0.00336618
0.00387777
0.0053904
0.00796737
0.012666
0.0175318
0.0185944
0.0208635
0.0213291
0.0239614
0.0257146
0.0275308
0.0323459
0.036096
0.0387233
0.041182
0.0434427
0.0464951
0.0523497
0.0580366
0.058602
0.0581043
0.0586077
0.0571767
0.0568695
0.0567325
0.0567956
0.0550693
0.0535436
0.051189
0.0509591
0.0537957
0.0526337
0.052408
0.0510592
0.0485397
0.0478183
0.0458836
0.0457447
0.048431
0.0519889
0.0544777
0.0579636
0.057513
0.059186
0.062031
0.0630797
0.0633441
0.0628148
0.0634625
0.0622407
0.0610899
0.0589437
0.0577352
0.0564033
0.0548992
0.0521906
0.0522651
0.0531317
0.0508194
0.0493747
0.0478569
0.0473325
0.0428687
0.0375266
0.0373553
0.0383879
0.0386377
0.0380969
0.0387371
0.0375125
0.0363635
0.0352235
0.0350246
0.0327044
0.0322124
0.0295146
0.0275967
0.0254661
0.0261508
0.0266971
0.0231645
0.0216203
0.0191332
0.019766
0.0235706
0.0225821
0.0228152
0.0232633
0.0228982
0.025674
0.0265306
0.0263998
0.027212
0.0269028
0.0274196
0.0277264
0.0268077
0.0266697
0.0303403
0.027866
0.0263073
0.0257332
0.0232142
0.0188154
0.0215907
0.0285772
0.0307919
0.0272292
0.0268613
0.0266414
0.0265077
0.0243901
0.0232162
0.0239191
0.0244437
0.026752
0.0258272
0.0246747
0.0273224
0.0268176
0.0252226
0.0246083
0.022048
0.0196096
0.0183493
0.0173063
0.0134984
0.00892071
0.00454548
-0.000674802
-0.0118031
-0.0239119
-0.0350759
-0.0463645
-0.0578354
-0.0715282
-0.0814613
-0.0916293
-0.098004
-0.102536
-0.108162
-0.106808
-0.107399
-0.110864
-0.110145
-0.0982046
-0.0820232
-0.0736066
-0.0629841
-0.0482056
-0.0273364
0.000549125
0.0273752
0.0490712
0.0755786
0.103857
0.133888
0.171679
0.20426
0.24068
0.282007
0.305316
0.312684
0.322179
0.333859
0.343765
0.351914
0.358301
0.359899
0.361659
0.355517
0.332399
0.307229
0.268933
0.21945
0.173737
0.129772
0.089562
0.0601349
0.0325427
0.0218542
0.0151483
0.00450535
-0.0150013
-0.0393138
-0.0603945
-0.0852299
-0.101832
-0.112235
-0.125493
-0.144675
-0.163859
-0.17012
-0.176525
-0.185127
-0.194959
-0.203029
-0.212323
-0.218804
-0.223417
-0.227093
-0.231757
-0.239338
-0.247772
-0.258012
-0.263029
-0.269819
-0.2744
-0.285811
-0.295107
-0.294356
-0.29663
-0.300997
-0.306516
-0.30823
-0.312163
-0.309317
-0.31167
-0.316183
-0.3158
-0.315455
-0.316078
-0.319605
-0.31998
-0.321164
-0.327138
-0.330903
-0.328483
-0.324918
-0.321264
-0.312585
-0.302946
-0.290409
-0.279026
-0.259831
-0.242842
-0.226055
-0.208446
-0.194974
-0.181587
-0.169222
-0.155817
-0.141314
-0.128664
-0.117833
-0.108806
-0.0995884
-0.0902023
-0.0766874
-0.0630953
-0.0524851
-0.0429172
-0.033448
-0.0281238
-0.0219767
-0.0150216
-0.00925415
-0.00465193
0.00182351
0.0032227
0.00460312
0.00702356
0.0115386
0.0171934
0.0190188
0.022029
0.0232192
0.0245672
0.0250351
0.0255732
0.0291254
0.0306342
0.0290467
0.0283193
0.0274224
0.027343
0.0290863
0.0276747
0.0291456
0.0275477
0.027936
0.0283665
0.0278906
0.0315502
0.0293736
0.0303724
0.029541
0.0268566
0.0272821
0.0267698
0.0272659
0.0287162
0.0290713
0.0292911
0.0293491
0.0282346
0.028954
0.0295297
0.0299983
0.0294063
0.0298061
0.0292502
0.0307865
0.0304535
0.0292764
0.0312648
0.0294119
0.0276951
0.0260784
0.021516
0.0219571
0.0273507
0.0276514
0.0268228
0.0278411
0.0256977
0.0263997
0.0299694
0.029442
0.0268616
0.0262771
0.0227373
0.0202861
0.0219586
0.0217774
0.022751
0.0238722
0.0241196
0.0214591
0.0218478
0.0222381
0.0205826
0.0238384
0.0209717
0.0189605
0.0177971
0.0184888
0.019057
0.0195352
0.0189653
0.0183936
0.0168662
0.0144243
0.0171006
0.0199161
0.0148779
0.0169784
0.0171963
0.0144992
0.0158461
0.015192
0.0154923
0.0157071
0.016805
0.0167663
0.0135847
0.0152677
0.0198364
0.0203228
0.0177669
0.0182121
0.0157012
0.0172727
0.0179566
0.0147718
0.0167239
0.0198052
0.0199955
0.0192639
0.0185717
0.0188767
0.0201372
0.0223162
0.0223848
0.0243251
0.0231319
0.0218128
0.0223876
0.0248868
0.0263477
0.0248114
0.021318
0.0239033
0.0255951
0.0254108
0.0243552
0.0254207
0.0265876
0.0278267
0.0281015
0.0293725
0.0316007
0.0327515
0.033798
0.0317237
0.0335238
0.033206
0.0307892
0.0323022
0.0297802
0.032262
0.0337857
0.0323851
0.0320864
0.0309054
0.0298464
0.0299016
0.0350524
0.0362707
0.0355223
0.0377693
0.0359746
0.0321052
0.0351356
0.0370504
0.0408459
0.0405299
0.0401213
0.0386476
0.0381425
0.0396429
0.0381848
0.0378001
0.0395133
0.0413394
0.0412821
0.0413338
0.041476
0.0406813
0.0389166
0.0411456
0.0413331
0.0374482
0.0374669
0.0413752
0.0411701
0.0398598
0.0374625
0.0380048
0.0395196
0.040042
0.0396064
0.039243
0.0419744
0.038814
0.0387646
0.0388176
0.0379549
0.03815
0.0343709
0.0325833
0.0377539
0.0398544
0.0358632
0.0347676
0.0355656
0.0392656
0.0388859
0.0344521
0.0369952
0.0365481
0.0341428
0.0348068
0.0325608
0.0354165
0.0363759
0.0354307
0.0335633
0.0347484
0.0329559
0.0301538
0.0323112
0.0314015
0.0294052
0.031311
0.0311181
0.0318348
0.0324789
0.0310747
0.0306513
0.0272395
0.0248685
0.0265636
0.0253434
0.0252185
0.0251897
0.0232487
0.0233785
0.0215556
0.0187516
0.016937
0.0180834
0.0231668
0.0201698
0.0170828
0.0179051
0.016645
0.0153189
0.0139496
0.0125639
0.0121904
0.00985598
0.00958386
0.0083909
0.00828624
0.00727036
0.00433505
0.00646434
0.0076363
0.00582508
0.00700333
0.0081451
0.00922834
0.00623688
0.00716195
0.00600317
0.00476845
0.00847327
0.00913918
0.00479132
0.00245584
0.000157547
-0.00108238
-0.00224844
-0.00333236
-0.00233375
-0.00326018
-0.00412641
-0.00695304
-0.00576428
-0.00658553
-0.00744092
-0.00635104
-0.00633081
-0.00238809
-0.00452302
-0.00772829
-0.00698981
-0.00828787
-0.00959923
-0.00889938
-0.0111649
-0.013376
-0.0135179
-0.0135828
-0.0125701
-0.0134866
-0.0163461
-0.0161676
-0.0149739
-0.0157884
-0.0146341
-0.0165303
-0.0134913
-0.0115248
-0.0116314
-0.0118044
-0.0140309
-0.0132928
-0.0135682
-0.0158344
-0.0140693
-0.0142537
-0.0163736
-0.0154211
-0.0133951
-0.0133015
-0.0121526
-0.0139662
-0.0157635
-0.0165669
-0.0183983
-0.0192765
-0.0172153
-0.0192225
-0.0232992
-0.0204396
-0.0136312
-0.0178566
-0.0210953
-0.020326
-0.0205276
-0.0206822
-0.0187764
-0.0178023
-0.0177591
-0.0196524
-0.0214939
-0.0183004
-0.0200914
-0.0178879
-0.0167099
-0.0205746
-0.0194952
-0.018479
-0.0165268
-0.015633
-0.0167864
-0.0169713
-0.017169
-0.0153593
-0.0165232
-0.014644
-0.0157093
-0.0177124
-0.0146523
-0.0145341
-0.0163683
-0.0161701
-0.0159575
-0.0157493
-0.0135639
-0.0134168
-0.0143199
-0.0152797
-0.0132974
-0.013368
-0.0104816
-0.00762372
-0.0107774
-0.010925
-0.00804922
-0.00813524
-0.010172
-0.0081534
-0.00507839
-0.00695132
-0.00878164
-0.00858273
-0.00837042
-0.00816146
-0.00797191
-0.00781559
-0.00870285
-0.00763953
-0.00862648
-0.00765958
-0.00373009
-0.00382558
-0.00693154
-0.00803279
-0.00611466
-0.00616437
-0.00617234
-0.00313311
-0.00404567
-0.00391371
-0.00374509
-0.00355095
-0.00334458
-0.00314011
4.89581e-005
-0.000788987
0.000337296
-0.00257733
-0.00653404
-0.00452979
-0.00655754
-0.00360712
-0.000666166
0.00227856
0.00323967
0.000227792
0.0012506
0.00131235
0.00141355
0.00255092
0.00271787
0.00290518
0.00510197
0.00829697
0.00847946
0.00664016
0.00677213
0.00587152
0.00593788
0.00997425
0.00998669
0.0109835
0.0109742
0.0119687
0.0109764
0.011005
0.01106
0.0101442
0.0132577
0.0123978
0.0115592
0.0117348
0.0119165
0.012096
0.0112657
0.011419
0.0125518
0.0136619
0.0157498
0.0168182
0.0138714
0.0119152
0.00995563
0.00899918
0.00705169
0.0111181
0.0132019
0.0113049
0.0104266
0.00956484
0.00871588
0.00787504
0.0100372
0.00819746
0.00735129
0.00649518
0.0046269
0.00474571
0.0058524
0.00794913
0.00903903
0.00912571
0.00721272
0.00530313
0.00339934
0.00650301
0.00761502
0.00873532
0.00786284
0.00899582
0.0111322
0.0122697
0.0154066
0.0165413
0.0156729
0.015801
0.0189257
0.0210483
0.02217
0.0252925
0.0294172
0.0315452
0.0346771
0.0398126
0.0399509
0.0400902
0.0442283
0.0493633
0.0504934
0.0506171
0.0507335
0.0508428
0.0509461
0.0510458
0.0501449
0.0472469
0.0483556
0.0464745
0.0446062
0.0457522
0.0459127
0.0500864
0.0482702
0.0444596
0.0426485
0.0398306
0.0379999
0.0421513
0.0432817
0.04439
0.0504772
0.0525469
0.0536046
0.0566572
0.0607126
0.0617789
0.0638635
0.066972
0.0671082
0.066273
0.0664643
0.0646773
0.0619046
0.0591374
0.0553655
0.0535791
0.0497696
0.0499305
0.0490582
0.0451521
0.042215
0.039253
0.0392746
0.0382907
0.0383127
0.037352
0.0354184
0.035519
0.034658
0.0358355
0.033048
0.0312879
0.0315449
0.0298066
0.0280599
0.027292
0.027492
0.0266521
0.0257682
0.0248405
0.0248735
0.0238759
0.0248594
0.0248381
0.0248268
0.0238394
0.0258878
0.0259807
0.0241222
0.0263117
0.0295437
0.0288085
0.0290928
0.0293806
0.0296555
0.0299019
0.0271065
0.0282601
0.0303582
0.0304021
0.0293983
0.0283581
0.0262964
0.027231
0.0271799
0.0251605
0.025187
0.0252694
0.0244122
0.0246139
0.0248671
0.026159
0.0264728
0.0247887
0.0240865
0.026347
0.0245546
0.0246985
0.0257738
0.0247826
0.0257335
0.0246408
0.0235235
0.0224034
0.0183027
0.016242
0.0122385
0.00730371
0.00244255
-0.00534735
-0.0140756
-0.0237583
-0.0344162
-0.0450732
-0.0577534
-0.0684792
-0.0782688
-0.087134
-0.0950797
