-0.0569092
-0.0548517
-0.055031
-0.0563656
-0.0487574
-0.0441016
-0.0442974
-0.0542584
-0.0549216
-0.0452524
-0.0422488
-0.0479425
-0.0523961
-0.0566968
-0.0639478
-0.0552577
-0.0417291
-0.044449
-0.044481
-0.0458582
-0.0515797
-0.0456104
-0.0468835
-0.0333074
-0.0377745
-0.0491729
-0.0463969
-0.0433567
-0.0279876
-0.0252567
-0.0251672
-0.0367586
-0.0651038
-0.0783009
-0.0634625
-0.0517034
-0.0581311
-0.0788363
-0.0718832
-0.0553012
-0.0550823
-0.0461826
-0.0425268
-0.044015
-0.0585336
-0.0569654
-0.0472006
-0.0351473
-0.0407417
-0.0629554
-0.053798
-0.0503147
-0.0495822
-0.0547028
-0.0637939
-0.0589762
-0.0493613
-0.051041
-0.0570787
-0.0575033
-0.0603056
-0.064439
-0.0688239
-0.0593553
-0.0509125
-0.0543716
-0.050618
-0.0525578
-0.0601268
-0.0522972
-0.0440797
-0.0415227
-0.0437087
-0.069747
-0.070762
-0.0548801
-0.0582167
-0.0608665
-0.0498936
-0.0443246
-0.0521467
-0.0493087
-0.0477258
-0.0492873
-0.0528682
-0.0603411
-0.0565884
-0.0505139
-0.0400515
-0.024173
-0.0478912
-0.0362597
-0.00736553
-0.0373217
-0.0432581
-0.0373071
-0.0295891
-0.0352017
-0.0532111
-0.0336443
-0.00948493
-0.00567543
-0.0131247
-0.00871644
-0.00531962
-0.0158016
-0.00204104
0.0020605
-0.0054316
0.00150794
0.00686257
0.00657514
0.00455287
-0.0103238
-0.00418898
0.0138226
0.0175891
0.0170118
2.46392e-005
0.0186018
0.0357616
0.0265637
0.025102
0.00949635
0.0268815
0.0543953
0.0561642
0.0542893
0.0498358
0.0658285
0.0652489
0.0540359
0.0480919
0.0472926
0.0535003
0.0465765
0.0573956
0.0578575
0.0678972
0.0744914
0.0696602
0.0804655
0.074005
0.0854027
0.0907974
0.0903284
0.0911218
0.0922784
0.100864
0.104903
0.125375
0.12022
0.112337
0.105601
0.11887
0.133005
0.128879
0.12539
0.0914695
0.0810919
0.105277
0.137092
0.108639
0.090044
0.109449
0.100997
0.100818
0.116013
0.136651
0.147757
0.141307
0.120235
0.114434
0.126774
0.14411
0.129299
0.12121
0.122739
0.110822
0.109438
0.102612
0.123414
0.128954
0.127364
0.136792
0.132384
0.121269
0.115546
0.115277
0.113479
0.112124
0.107139
0.114415
0.106818
0.0982003
0.0944176
0.0953408
0.0998708
0.102948
0.115557
0.105731
0.102541
0.103099
0.0965395
0.0900086
0.0846507
0.0925938
0.105937
0.102742
0.103022
0.0997452
0.0698355
0.0801796
0.0816408
0.0780713
0.0913263
0.0752785
0.0598293
0.0609197
0.0655369
0.0567153
0.0625328
0.0631031
0.0585647
0.0600668
0.0527551
0.0477567
0.0481686
0.0480476
0.0364047
0.0522043
0.0543679
0.0427808
0.0413031
0.0517847
0.0640801
0.0420616
0.0416315
0.0507329
0.0393559
0.0325371
0.0283569
0.0209321
0.024404
0.0319255
0.0336454
0.019693
0.022165
0.0451178
0.0475611
0.0304555
0.00171523
0.0152183
0.0308206
0.0263686
0.0187131
-0.00527633
-0.0196976
0.00439514
0.00899755
-0.00184632
-0.005049
-0.0124873
-0.00401396
0.0045282
0.00729019
0.00140116
0.0109559
0.0150058
0.0125535
0.00955188
-0.0190915
-0.0245052
-0.0148393
-0.00625072
-0.0078882
-0.0178789
-0.0283157
-0.0222468
-0.024671
-0.0155378
0.005248
-0.00218385
-0.00568289
-0.0160926
-0.0222652
-0.026076
-0.00643493
0.00770463
-0.0126602
-0.0105822
-0.0151581
-0.0245181
-0.0308143
-0.0302044
-0.0218361
-0.0398333
-0.0432842
-0.0272315
-0.031668
-0.0285383
-0.0257442
-0.0311546
-0.0316182
-0.0289783
-0.0230881
-0.0248253
-0.0321047
-0.0548869
-0.0481816
-0.0240447
-0.0375738
-0.0589009
-0.0541783
-0.0425615
-0.0421949
-0.0371983
-0.0336552
-0.0376042
-0.0560366
-0.0478959
-0.0270826
-0.0464644
-0.048891
-0.0292072
-0.0242673
-0.0289513
-0.0301767
-0.0389066
-0.0321521
-0.0329718
-0.0574664
-0.0597691
-0.0370304
-0.0174033
-0.0320298
-0.021028
-0.0194794
-0.0494217
-0.0438452
-0.0376917
-0.0348607
-0.03122
-0.0286185
-0.0289015
-0.0329256
-0.0335729
-0.0327623
-0.0364574
-0.0306703
-0.03346
-0.0419274
-0.0382051
-0.0444438
-0.0427982
-0.0424113
-0.0464007
-0.0388468
-0.0407852
-0.0422031
-0.0390408
-0.0481976
-0.0445415
-0.0309214
-0.0331825
-0.0341819
-0.0368027
-0.0349651
-0.034634
-0.0338225
-0.0295906
-0.0380397
-0.0393026
-0.0385303
-0.0478768
-0.0424847
-0.0404704
-0.0429129
-0.0398467
-0.0702588
-0.0730898
-0.0732388
-0.0635723
-0.0299376
-0.0391788
-0.0351532
-0.032745
-0.0238761
-0.0345137
-0.0406746
-0.0284219
-0.0418591
-0.0381203
-0.0393563
-0.03372
-0.0313512
-0.0413632
-0.0458324
-0.0317896
-0.0342169
-0.0450508
-0.028188
-0.0264948
-0.0598221
-0.0780206
-0.0199521
0.00349826
-0.0255935
-0.0291993
-0.0323393
-0.0290787
-0.0255216
-0.0268011
-0.0280663
-0.0314676
-0.0291416
-0.0241975
-0.0227063
-0.0216947
-0.0271421
-0.0149829
-0.00911218
-0.0293976
-0.0286926
-0.0128492
-0.0147327
-0.029236
-0.0292907
-0.0338722
-0.0270021
-0.0107456
-0.0132057
-0.0125136
-0.00581571
-0.00825867
-0.0119755
-0.0230727
-0.0316195
-0.0156401
-0.0251116
-0.0319669
-0.00710123
-0.00838123
-0.0216604
-0.0187933
-0.0206489
-0.0111233
-0.000149901
-0.0117067
-0.0168189
-0.00855574
-0.00702269
-0.0103519
0.00731117
-0.0121782
-0.0219505
-0.011108
-0.0277146
-0.00878933
-0.0113047
-0.0171899
-0.0103384
-0.0176175
-0.0148821
1.15456e-005
0.0111918
0.0107583
0.00577132
-0.00175398
-0.0068483
-0.00758483
-0.00307155
-0.0144409
-0.0168371
0.0125996
0.0307471
0.0245116
0.0198357
0.0287052
0.0281508
0.0282448
0.0360937
0.0308279
0.0455888
0.0355148
0.0317271
0.0523187
0.056346
0.0528217
0.059714
0.0679501
0.0554233
0.0840036
0.0795512
0.077929
0.0910166
0.0657219
0.0739899
0.0798093
0.050213
0.0462736
0.0520983
0.0488183
0.049575
0.0465056
0.0437303
0.0353393
0.0423849
0.0448765
0.0487791
0.0390165
0.0144783
0.0220312
0.0385344
0.0668533
0.081872
0.0725026
0.0676942
0.0754388
0.0717726
0.0707722
0.0725471
0.0612288
0.0599579
0.0588707
0.0470855
0.0356904
0.0307355
0.0292276
0.0441303
0.041367
0.024827
0.0183764
0.0128719
0.00917544
0.00716746
0.00675879
0.00189928
0.0055829
0.00284846
0.00177574
-0.00252241
-0.000910907
-0.000245503
-0.00238712
0.00078442
-0.00464149
-0.0106153
-0.0081321
-0.0112316
-0.0349956
-0.0285391
-0.0059981
-0.00951618
-0.0232328
-0.0242691
-0.0317153
-0.0226211
-0.0289912
-0.0547857
-0.0409234
-0.0422885
-0.0367421
-0.0251367
-0.01333
-0.0101997
-0.0306564
-0.0176522
-0.0151838
-0.00829341
0.00893506
-0.00561598
-0.0190874
-0.0286289
-0.0333831
-0.0364713
-0.0319818
-0.0179603
-0.0104065
-0.0172742
-0.0284772
-0.0338968
-0.0293928
-0.015817
-0.0230283
-0.0399077
-0.0303697
-0.0213691
-0.020906
-0.0170267
-0.020819
-0.0174033
-0.0159207
-0.0235192
-0.0203391
-0.020499
-0.0300838
-0.0291374
-0.0296568
-0.0425937
-0.0478588
-0.0613307
-0.0778682
-0.0843233
-0.0945561
-0.103448
-0.113916
-0.124916
-0.139453
-0.143577
-0.151377
-0.161978
-0.174522
-0.183159
-0.177028
-0.175246
-0.164897
-0.150019
-0.124607
-0.110609
-0.0889324
-0.0574541
-0.0300316
0.0114827
0.0462272
0.0893169
0.127832
0.158812
0.200247
0.250085
0.287233
0.334568
0.396949
0.425232
0.45528
0.486979
0.500249
0.510053
0.500398
0.502335
0.51996
0.524398
0.522793
0.522294
0.501039
0.45614
0.402673
0.35467
0.320118
0.292962
0.299108
0.306434
0.297803
0.29207
0.293098
0.274775
0.236017
0.263786
0.266088
0.227975
0.230538
0.220898
0.182199
0.176589
0.172209
0.127178
0.128583
0.113468
0.100832
0.101629
0.0887696
0.0631295
0.0175615
-0.0120906
-0.0549761
-0.076222
-0.10592
-0.12112
-0.132819
-0.166969
-0.186477
-0.221216
-0.254037
-0.260781
-0.273295
-0.285448
-0.305145
-0.335334
-0.344014
-0.362235
-0.364087
-0.364701
-0.389229
-0.405835
-0.419674
-0.424883
-0.439559
-0.448756
-0.442478
-0.432675
-0.436251
-0.450076
-0.441993
-0.424837
-0.405447
-0.393685
-0.38245
-0.365689
-0.338396
-0.314622
-0.302461
-0.26905
-0.250546
-0.251122
-0.24394
-0.217141
-0.178828
-0.165054
-0.172822
-0.166083
-0.137739
-0.14465
-0.140655
-0.104578
-0.0982546
-0.0965406
-0.0713319
-0.0755725
-0.0842612
-0.0504512
-0.056244
-0.0737819
-0.0522332
-0.0567746
-0.0605745
-0.0627771
-0.0744875
-0.0517605
-0.0405947
-0.0589337
-0.0506727
-0.0276661
-0.051743
-0.0787259
-0.0614464
-0.0437594
-0.0465587
-0.0437898
-0.0394539
-0.0386081
-0.0503606
-0.0598599
-0.0462798
-0.0398011
-0.0435953
-0.045808
-0.0635447
-0.0538594
-0.0297483
-0.0561508
-0.0669571
-0.067018
-0.078158
-0.0721931
-0.0509484
-0.0332748
-0.0450661
-0.0532701
-0.0508929
-0.0439972
-0.0526974
-0.0531483
-0.0435292
-0.052027
-0.0558174
-0.0530481
-0.056823
-0.0531925
-0.0661486
-0.0696257
-0.0395056
-0.0506293
-0.0568145
-0.0528731
-0.0606289
-0.0579354
-0.0506899
-0.0458436
-0.0604076
-0.0494516
-0.0510964
-0.0575025
-0.0448543
-0.0583417
-0.055142
-0.0524014
-0.054221
-0.0496465
-0.0486638
-0.0492004
-0.0481324
-0.0442966
-0.0445067
-0.0405714
-0.0523138
-0.0655895
-0.0702997
-0.074401
-0.0799097
-0.0889001
-0.0664975
-0.0438642
-0.0221851
-0.0346509
-0.0524404
-0.0327014
-0.0405346
-0.047985
-0.0550376
-0.0516175
-0.0475968
-0.0618081
-0.0660607
-0.0321584
-0.021918
-0.0371898
-0.0288731
-0.029925
-0.0403646
-0.0412721
-0.0317799
-0.0280597
-0.0103055
-0.0127154
-0.0254726
-0.0337274
-0.0445814
-0.0370766
-0.038191
-0.0308408
-0.0228887
-0.0141574
-0.0174473
-0.0275571
-0.0113027
-0.00353456
-0.00315364
-0.0101219
-0.0224663
-0.00927513
-0.000688826
0.000113195
0.00592953
0.00955702
0.0188109
0.0225433
0.024657
0.0311162
0.0299494
0.0312471
0.037153
0.0398502
0.0415431
0.0564372
0.0617191
0.0335369
0.0349849
0.0470966
0.0508413
0.062126
0.059804
0.0656895
0.0695756
0.0752551
0.0735407
0.0762831
0.0793867
0.0678184
0.0736113
0.0788623
0.0887228
0.0823832
0.101054
0.144948
0.135255
0.100123
0.0786424
0.0798414
0.104683
0.134067
0.129843
0.126818
0.124778
0.122513
0.123831
0.125584
0.129679
0.133086
0.134847
0.132065
0.149897
0.149539
0.159209
0.156119
0.141459
0.133377
0.120962
0.138242
0.143175
0.149657
0.155528
0.15959
0.155627
0.133422
0.128782
0.137558
0.133658
0.146056
0.181799
0.172998
0.164815
0.188451
0.185126
0.172055
0.156429
0.137393
0.139038
0.151387
0.151397
0.145959
0.15891
0.162049
0.155157
0.151016
0.126432
0.122255
0.138391
0.143818
0.146581
0.152793
0.152618
0.140261
0.137941
0.132878
0.128266
0.129254
0.124935
0.127333
0.135405
0.128039
0.0920681
0.102287
0.125472
0.108405
0.103889
0.0937729
0.0879622
0.093432
0.0902284
0.0844634
0.0863041
0.0799569
0.0776468
0.076596
0.0740018
0.0750171
0.0737359
0.0591833
0.0573127
0.0690116
0.0611124
0.0554075
0.0626701
0.0596772
0.0312295
0.0231716
0.0514092
0.0619189
0.0597484
0.0760118
0.0468781
0.0155538
0.0272641
0.0402338
0.0516636
0.0257091
0.0574653
0.0739595
0.0311463
0.0189098
0.0130783
0.0164415
0.018771
0.0278422
0.0224558
0.0234569
0.0327509
0.0353127
0.0211884
0.00549033
0.0103874
0.00508906
0.0158248
0.0178216
0.0112809
0.0143592
0.0151526
0.00268773
-0.004082
0.00172949
0.00295222
0.0123764
0.00477229
0.00191267
0.00159504
-0.00333813
-0.00698416
-0.0123706
-0.00745206
0.00788574
0.000814457
-0.0104548
-0.00869185
-0.0146687
-0.0201825
-0.00907522
0.00375178
-0.0146733
-0.0313967
-0.017533
-0.0172529
-0.0157676
-0.0033083
-0.0311041
-0.0513605
-0.0472379
-0.0428344
-0.0501769
-0.0452195
-0.0238465
-0.0158844
-0.0271197
-0.0373211
-0.0342603
-0.0537348
-0.0505871
-0.0407199
-0.0541055
-0.0407896
-0.0158849
-0.0355617
-0.0530328
-0.0445313
-0.0302861
-0.0325003
-0.0463327
-0.0478822
-0.0341767
-0.0391704
-0.0487494
-0.050743
-0.0509391
-0.0531056
-0.0580128
-0.0324559
-0.0282743
-0.0433692
-0.0457136
-0.0523542
-0.0534058
-0.0530408
-0.0484716
-0.0519307
-0.0536474
-0.0508259
-0.0536247
-0.0531415
-0.039403
-0.0343625
-0.0459054
-0.0478605
-0.0470162
-0.0491409
-0.0580059
-0.057408
-0.0491887
-0.0442496
-0.0315622
-0.0341714
-0.0461916
-0.028795
-0.0371937
-0.0596209
-0.0563071
-0.0444565
-0.0342263
-0.0547134
-0.0469451
-0.0468751
-0.0513885
-0.0493131
-0.0664366
-0.0465272
-0.0513552
-0.0717176
-0.0734574
-0.0574778
-0.0557515
-0.0673247
-0.0573126
-0.042887
-0.0262593
-0.022661
-0.0313217
-0.0384464
-0.0501951
-0.0526664
-0.039887
-0.0518093
-0.0543173
-0.0522371
-0.0493533
-0.0454311
-0.056239
-0.0375722
-0.0172712
-0.0222385
-0.0414504
-0.0459583
-0.0438827
-0.0494007
-0.027729
-0.00810178
-0.0257494
-0.0398767
-0.0396419
-0.0491397
-0.0413921
-0.0473464
-0.0578806
-0.0298152
-0.0219296
-0.0299859
-0.0357531
-0.0360289
-0.0256587
-0.0375516
-0.0576905
-0.0531327
-0.051003
-0.0414821
-0.0297886
-0.0241579
-0.0258198
-0.0359758
-0.020779
-0.022318
-0.0236092
-0.0275952
-0.0451506
-0.0360936
-0.0282033
-0.0242415
-0.0269772
-0.0222096
-0.0417873
-0.0466245
-0.0257071
-0.0310947
-0.0399161
-0.0333562
-0.0136369
-0.0279956
-0.0306635
-0.0198412
-0.0186787
-0.0142611
-0.0046
-0.00963267
-0.0242287
-0.0252024
-0.0173301
-0.00737184
-0.0330963
-0.0493046
-0.0428481
-0.0326421
-0.030675
-0.00800985
-0.0107787
-0.038171
-0.0304146
-0.0417521
-0.0194161
-0.00660691
-0.0184733
-0.0160988
-0.0134925
-0.00258705
0.000754125
-0.00527695
-0.00745184
-0.00852757
-0.00127015
0.0125226
3.04194e-007
0.00124461
0.00426179
-0.00401792
0.000266163
-0.0200813
-0.00729244
0.0153882
-0.0102736
-0.0164805
-0.00338146
0.00894374
0.0134917
0.0223351
0.00761509
-0.0134726
-0.00369622
0.00719122
0.00742661
0.00821249
0.0136974
0.0209614
0.018008
0.0277634
0.0370839
0.0197697
0.0265836
0.0422763
0.0446104
0.0493831
0.0514459
0.0497198
0.0542033
0.0639728
0.0411747
0.0170102
0.0417173
0.0555492
0.0387473
0.030516
0.0300034
0.032288
0.0533703
0.0581729
0.0375457
0.0332806
0.0331337
0.0458491
0.0481845
0.0419338
0.054948
0.0721507
0.0765454
0.0642143
0.0633101
0.0650426
0.067658
0.0624147
0.0575576
0.0762943
0.066775
0.0600762
0.0581931
0.0360406
0.044461
0.059241
0.0301309
0.0108683
0.0182045
0.0119312
0.00189939
0.00303381
0.000341475
-0.00808946
-0.00909836
-0.0114674
-0.0129428
-0.00125997
-0.00416915
0.00453924
0.0170143
-0.00167074
-0.0275271
-0.0256484
-0.0181995
-0.0214009
-0.0235086
-0.024788
-0.0264885
-0.025818
-0.019923
-0.0298739
-0.0166583
-0.00818137
-0.022276
-0.0207198
-0.0252558
-0.0236179
-0.033557
-0.0558661
-0.0223999
-8.67735e-005
-0.0109389
-0.0180525
-0.0295977
-0.0608017
-0.0529255
0.0157642
0.0250211
-0.00736146
-0.00153062
-0.00255598
-0.015423
-0.0100348
-0.0092207
-0.00775325
-0.00937066
-0.0148028
-0.0137974
-0.0121448
-0.000698429
0.000610465
0.0127656
0.015667
0.00514013
0.0149531
-0.00916048
-0.030476
-0.0142492
0.0053103
0.0060592
-0.00306758
-0.00404988
-0.000783119
-0.00508855
-0.0207315
-0.0254441
-0.0269511
-0.035997
-0.0473715
-0.0529305
-0.0576097
-0.0794321
-0.0885054
-0.101012
-0.119189
-0.130308
-0.149648
-0.170465
-0.17997
-0.185305
-0.198531
-0.192622
-0.182465
-0.183874
-0.174609
-0.159394
-0.138952
-0.122026
-0.100409
-0.0679607
-0.0366237
-0.000428636
0.037509
0.0649995
0.0957975
0.134627
0.177209
0.230288
0.28566
0.332191
0.380826
0.426602
0.462638
0.493126
0.473309
0.461461
0.486857
0.499753
0.519354
0.5428
0.535146
0.517357
0.511313
0.458819
0.402623
0.394445
0.390004
0.359045
0.318365
0.302828
0.312384
0.350076
0.358032
0.335447
0.31957
0.307675
0.294037
0.276906
0.276481
0.252893
0.216188
0.195326
0.185187
0.166579
0.151261
0.135961
0.12041
0.0933614
0.0656161
0.0520447
0.0215978
-0.0156892
-0.0386998
-0.0442468
-0.0830906
-0.127965
-0.155603
-0.151758
-0.154232
-0.174893
-0.182688
-0.244654
-0.303907
-0.316636
-0.306078
-0.318492
-0.326144
-0.351274
-0.383079
-0.362688
-0.376149
-0.40043
-0.41842
-0.419939
-0.421756
-0.427611
-0.439241
-0.447408
-0.436918
-0.441641
-0.426526
-0.428602
-0.434979
-0.407834
-0.394395
-0.374916
-0.353656
-0.333854
-0.309703
-0.290331
-0.268793
-0.243062
-0.231032
-0.221532
-0.200338
-0.179198
-0.160852
-0.147064
-0.135639
-0.128447
-0.113432
-0.098616
-0.0891013
-0.0700571
-0.0627037
-0.0612921
-0.0590794
-0.0533031
-0.0551579
-0.0577776
-0.0402211
-0.0524668
-0.0594163
-0.0519028
-0.0537071
-0.0525792
-0.0292629
-0.0105195
-0.0341535
-0.0410322
-0.0620976
-0.0613709
-0.0219487
-0.0329943
-0.0427241
-0.042386
-0.0422338
-0.0225023
-0.0253848
-0.0220152
-0.0224548
-0.0396869
-0.0426183
-0.0370875
-0.0448804
-0.0657525
-0.055452
-0.0357429
-0.0364286
-0.044373
-0.0485129
-0.0508642
-0.0465194
-0.0376383
-0.0394332
-0.0471483
-0.0510363
-0.0503324
-0.0452319
-0.0538707
-0.0483131
-0.0375444
-0.0464731
-0.0579406
-0.0637364
-0.0566179
-0.0453335
-0.0256475
-0.0373638
-0.0503468
-0.0605334
-0.0659381
-0.038651
-0.0518286
-0.0486805
-0.0424482
-0.0433808
-0.0217108
-0.0326319
-0.0512813
-0.0457255
-0.0489528
-0.0588752
-0.0493367
-0.0501283
-0.0600095
-0.0697315
-0.0480611
-0.0218019
-0.0318152
-0.0450358
-0.0514769
-0.0492278
-0.0464445
-0.042335
-0.0401393
-0.0401053
-0.0384653
-0.0444131
-0.0600852
-0.0525473
-0.0417867
-0.0457144
-0.0411745
-0.0439592
-0.0488297
-0.0465392
-0.0438567
-0.0475897
-0.0456038
-0.0438346
-0.0422947
-0.0350721
-0.0363214
-0.0402493
-0.0390938
-0.0341007
-0.0324994
-0.0384809
-0.0411793
-0.0366582
-0.0399043
-0.0328291
-0.0212774
-0.034043
-0.0518902
-0.0225751
-0.00486849
-0.0355802
-0.0375794
-0.0288049
-0.0102699
-0.0300622
-0.0313367
-0.00629828
-0.0191812
-0.00022766
0.00833675
0.0153251
0.0156064
0.029119
0.0288768
-0.0100341
0.0075375
0.0237949
0.0339734
0.0373154
0.00304594
-0.00664976
0.0103584
0.0161334
0.0196631
0.0228612
0.0185758
0.0316045
0.0367146
0.0346652
0.0452308
0.0412238
0.0405121
0.0430326
0.0447976
0.0518936
0.0494729
0.0617382
0.0689237
0.067271
0.0660057
0.0513148
0.0343286
0.0571092
0.0976459
0.0878548
0.0885845
0.0886317
0.0717618
0.0717313
0.0953139
0.0993221
0.103624
0.0991572
0.0789326
0.109036
0.0996218
0.0798918
0.0910799
0.0984292
0.108168
0.0984851
0.0785134
0.0713147
0.0818759
0.108112
0.133872
0.122953
0.10612
0.120128
0.130747
0.123787
0.113113
0.11566
0.12344
0.128541
0.131116
0.127374
0.130551
0.132893
0.133632
0.120958
0.126006
0.12484
0.126448
0.14574
0.137563
0.139708
0.135937
0.131999
0.132663
0.125736
0.125082
0.116637
0.118413
0.123503
0.127064
0.118307
0.104474
0.109814
0.121562
0.124911
0.117999
0.104886
0.109558
0.116922
0.108818
0.101033
0.0953233
0.101436
0.107138
0.102235
0.0915936
0.0891499
0.0749207
0.0709998
0.0885497
0.0857864
0.102957
0.108315
0.0750966
0.0724928
0.0876367
0.0835893
0.0543313
0.0557648
0.082726
0.0740003
0.0603414
0.0534953
0.0492268
0.0473427
0.0677109
0.0732736
0.0440512
0.0371398
0.0577041
0.060962
0.036161
0.0465536
0.0393742
0.0248154
0.0490095
0.0400159
0.0368142
0.042306
0.0313253
0.0316539
0.0340438
0.0342411
0.0360108
0.0361602
0.0305571
0.0241428
0.0189383
0.0230427
0.0306237
0.0209007
0.0141225
0.0115436
0.0133997
0.0128844
0.00212974
-0.00680692
-0.00294818
-0.00439387
-0.015312
-0.0219228
-0.0324765
-0.0222286
-0.0214142
-0.0412265
-0.0327977
-0.0181843
-0.0253626
-0.0352321
-0.0116244
-0.00731838
-6.3651e-005
0.00339509
-0.0267077
-0.0321814
-0.0358961
-0.030795
-0.0359004
-0.0303116
-0.0301954
-0.0247698
-0.0192826
-0.0339878
-0.0151207
-0.00687406
-0.01538
-0.0316985
-0.0508108
-0.0256199
-0.00395836
-0.0176068
-0.0263169
-0.0258346
-0.0179234
-0.0193882
-0.0260947
-0.0359829
-0.0240721
-0.00645822
-0.038306
-0.0498342
-0.0432925
-0.0459357
-0.0530007
-0.0656837
-0.0471196
-0.0303688
-0.0294117
-0.0321524
-0.0404277
-0.0420224
-0.0346899
-0.0261757
-0.0312429
-0.0446962
-0.0384
-0.0262906
-0.0353828
-0.0427698
-0.0466132
-0.0411269
-0.0285557
-0.0381523
-0.0331532
-0.0227553
-0.0230964
-0.0162427
-0.0201821
-0.0378262
-0.0420185
-0.0465488
-0.0581736
-0.0286392
-0.0157059
-0.0461731
-0.0278998
-0.000815037
0.00407411
-0.0133189
-0.0271518
-0.0116365
-0.0150176
-0.0175497
-0.0194727
-0.0259884
-0.0282407
-0.0303015
-0.0281632
-0.0347403
-0.021877
-0.0143623
-0.0229516
-0.0113903
-0.0074383
-0.0148937
-0.00961264
-0.0185232
-0.0166321
-2.33715e-005
-0.00185015
-0.0143211
-0.0156799
-0.0181805
-0.0110621
-0.0125262
-0.00371711
0.00729232
-0.0274936
-0.021994
-0.0120575
-0.013477
0.00198932
0.000594488
-0.00342272
-0.0168612
-0.0115762
-0.0174932
-0.0196149
-0.00902117
-0.0138608
0.00266262
-0.0226897
-0.0361695
-0.0110153
-0.010428
-0.00455296
-0.00846689
-0.0061697
-0.00458457
-0.0275659
-0.0489143
-0.0373942
-0.0177555
-0.0137586
-0.0241998
-0.029931
-0.0238728
-0.013022
-0.00945192
-0.010306
-0.00578412
-0.0121224
-0.017571
-0.0283693
-0.0417227
-0.0237817
-0.00262616
-0.0232596
-0.0396101
-0.052537
-0.0558424
-0.0332906
-0.0196305
-0.0286222
-0.0360608
-0.0307958
-0.0557454
-0.0239042
-0.00534186
-0.0281989
-0.00967337
-0.00600015
-0.00642809
-0.0141968
-0.022513
-0.0335299
-0.0223319
-0.00392498
-0.00923771
-0.0151292
-0.0164025
-0.00682288
-0.0101411
-0.0221185
-0.01955
-0.0142832
-0.0362342
-0.0353957
-0.0258369
-0.0366967
-0.0261704
-0.0144906
-0.00190421
0.00435097
-0.0189317
-0.0199077
-0.0166644
-0.0302126
0.00351451
-0.00434469
-0.0275957
-0.0350071
-0.0443313
-0.035328
-0.0387879
-0.0145535
0.00746644
-0.00571395
-0.00416
0.0139913
0.0105448
0.0152656
0.0119016
0.00620833
0.0169735
0.0170379
0.0183109
0.0167786
0.0225063
0.0366322
0.0503541
0.0569095
0.0605521
0.0595266
0.0560452
0.060267
0.0602827
0.0551055
0.0566697
0.0588373
0.0524116
0.0461556
0.0518157
0.0561473
0.0629376
0.0820271
0.0533239
0.0278114
0.0445518
0.0206815
0.010396
0.0269322
0.0435459
0.0684868
0.0789724
0.0681661
0.079161
0.090972
0.0575336
0.0607056
0.0592884
0.0670433
0.0707152
0.0460564
0.0548511
0.0239372
0.0272217
0.0466914
0.0314137
0.0385283
0.0282342
0.0137698
0.00238917
0.0153389
0.0188339
0.0120353
0.0120346
0.0108446
0.00139881
-0.00744283
0.0201212
0.023854
0.00850127
-0.0041844
0.0105826
0.0166426
0.000904955
0.000356202
6.25014e-005
-0.00683682
-0.0111434
-0.0036187
-0.0140076
-0.0160637
0.00642698
0.0186261
0.0136253
0.00643629
-0.0070097
-0.0148546
-0.0242992
-0.0225833
-0.0159616
-0.00667873
0.0160543
0.0130803
0.0243109
0.0257347
-0.00258145
-0.0034997
0.000177363
-0.0113128
-0.00571633
0.00221247
-0.000312724
-0.00213212
-0.00515524
-0.00636958
-0.017842
-0.00671198
-0.000177351
-0.0124759
-0.00486236
-0.00558317
-0.00685209
0.00217032
-0.00860743
-0.0121994
0.00546013
0.00151072
0.0111511
0.0106199
-0.00482785
0.00405419
-0.0015192
0.000613702
0.0095459
0.0182928
0.00978994
0.0128988
-0.000579494
-0.0518856
-0.0402778
-0.0380043
-0.0582799
-0.0572667
-0.0960577
-0.115668
-0.109033
-0.124012
-0.143406
-0.147973
-0.164459
-0.177613
-0.18022
-0.175117
-0.150209
-0.14948
-0.165997
-0.153901
-0.131394
-0.108715
-0.0831229
-0.0558672
-0.0251654
0.00481867
0.038991
0.0433357
0.0869175
0.161877
0.209418
0.255784
0.300235
0.345022
0.377363
0.405421
0.437289
0.459979
0.467424
0.474483
0.482953
0.477594
0.487148
0.520368
0.51904
0.511003
0.487166
0.43251
0.3941
0.36307
0.334619
0.300986
0.304429
0.325201
0.312523
0.316559
0.330406
0.297078
0.251503
0.240538
0.227977
0.216577
0.209077
0.19823
0.178818
0.123682
0.118732
0.112959
0.0854381
0.0723165
0.0488006
0.0451359
0.0285829
0.0163904
-0.00122925
-0.0561217
-0.103207
-0.109483
-0.121028
-0.140991
-0.157578
-0.186033
-0.207614
-0.225566
-0.242097
-0.267357
-0.280425
-0.300303
-0.304907
-0.308088
-0.328634
-0.342303
-0.36084
-0.372003
-0.377587
-0.383444
-0.3945
-0.391757
-0.397297
-0.415275
-0.426901
-0.433417
-0.441079
-0.429127
-0.411761
-0.423124
-0.419288
-0.414245
-0.389912
-0.364132
-0.351695
-0.33536
-0.339875
-0.332007
-0.319557
-0.284388
-0.239428
-0.234685
-0.233247
-0.204269
-0.184959
-0.197558
-0.176316
-0.153466
-0.150203
-0.128662
-0.120908
-0.105928
-0.0896335
-0.100869
-0.0834264
-0.0740682
-0.0735476
-0.0826354
-0.0991424
-0.0759365
-0.0569541
-0.0542081
-0.0537873
-0.0598478
-0.0615968
-0.0692721
-0.0661184
-0.0443624
-0.0461911
-0.0567344
-0.0530526
-0.0421293
-0.034873
-0.0491274
-0.0516872
-0.0423173
-0.0387751
-0.0338357
-0.0553142
-0.0800846
-0.0660907
-0.0483493
-0.0509503
-0.0460486
-0.0398487
-0.0465846
-0.0524969
-0.0348087
-0.0497034
-0.0743083
-0.0646815
-0.0538039
-0.0505821
-0.052859
-0.0584292
-0.0490586
-0.0415071
-0.0475527
-0.0370137
-0.0747671
-0.0767605
-0.0470149
-0.0476224
-0.0307389
-0.0425692
-0.051347
-0.0433115
-0.0486828
-0.0596412
-0.0583097
-0.0537407
-0.0509112
-0.0397254
-0.0470244
-0.0516024
-0.0482265
-0.0496595
-0.0426829
-0.0321182
-0.0388454
-0.0408148
-0.0440517
-0.0626537
-0.0647813
-0.0736411
-0.0554649
-0.0374868
-0.0389207
-0.0329412
-0.0366651
-0.0191405
-0.0163411
-0.01617
-0.00746942
-0.0270357
-0.0536409
-0.0510533
-0.0280587
-0.0334814
-0.0252035
-0.0161757
-0.0414228
-0.0540419
-0.0471915
-0.0260743
-0.00891823
-0.00995529
-0.0314003
-0.0614299
-0.0431632
-0.0256482
-0.034859
-0.0336991
-0.0510114
-0.0445923
-0.0192105
-0.00263018
-0.0136354
-0.0250526
-0.0197664
-0.00872944
0.00403262
-0.0255778
-0.0307211
-0.0276032
-0.0254544
-0.0165073
-0.0199747
-0.00802853
-0.00678315
-0.0152844
-0.0145057
-0.00134916
0.00834446
-0.00122065
-0.00581604
0.00878975
0.00980903
0.0104133
0.000715976
0.00576206
0.0335247
0.0269075
0.0167524
0.0148552
0.0249874
0.0369186
0.0384386
0.0353767
0.0376194
0.0391212
0.0269092
0.0350802
0.0457923
0.0412487
0.0486772
0.0563085
0.0433532
0.0269801
0.0483013
0.0753627
0.0911388
0.0845327
0.0803858
0.0934944
0.0616295
0.0535585
0.0650701
0.0599952
0.0662228
0.0977115
0.111494
0.0736691
0.0463954
0.0608737
0.0793322
0.0870019
0.0970928
0.0967728
0.104151
0.111269
0.110095
0.114526
0.115401
0.111515
0.10964
0.112546
0.103027
0.101917
0.11011
0.103569
0.127331
0.141502
0.124244
0.115762
0.114281
0.120028
0.127206
0.134977
0.120444
0.113639
0.120524
0.121993
0.121885
0.114994
0.0970944
0.100962
0.117396
0.106242
0.117399
0.136839
0.144603
0.139799
0.131588
0.129172
0.144774
0.148613
0.0958855
0.0867421
0.106278
0.115524
0.116442
0.0869254
0.0928136
0.104907
0.0899859
0.0858336
0.0942553
0.1171
0.111273
0.0997459
0.0915569
0.0788091
0.0826609
0.0663102
0.0609742
0.0778697
0.0731917
0.0650927
0.0706683
0.0769488
0.0888959
0.0784056
0.0693183
0.0824347
0.0725365
0.0644065
0.0588502
0.043715
0.0599062
0.0663965
0.0562275
0.0665056
0.0553912
0.0580834
0.0678006
0.0657591
0.0541508
0.0521245
0.0727727
0.055122
0.0461294
0.0316867
0.018632
0.0437669
0.0458759
0.0337464
0.0271883
0.0280542
0.0532545
0.0527662
0.0266325
0.0169587
0.0139032
0.014663
0.0104535
0.00548708
0.00795218
0.0209957
0.0147082
0.0101136
0.000167912
-0.00623689
0.00373895
-0.00010134
0.0130279
0.00991574
-0.00362536
-0.00274104
0.000480272
0.002016
-8.89649e-005
0.00427337
0.00726364
0.0190794
0.00493528
-0.0169594
-0.01642
-0.0203037
-0.00852315
-0.00205553
-0.0239458
-0.0533032
-0.028289
-0.00309767
-0.029941
-0.0280289
-0.0265468
-0.00963689
0.00161571
-0.0148103
-0.0128705
-0.0264585
-0.0424163
-0.0205487
-0.0156419
-0.0244859
-0.0308957
-0.0357287
-0.0318984
-0.0123819
-0.0062231
-0.0325294
-0.030462
-0.0382181
-0.0330117
-0.0220522
-0.0315245
-0.0255718
-0.01728
-0.0176699
-0.029696
-0.0282507
-0.0241737
-0.0182678
-0.00931876
-0.0141161
-0.0184749
-0.025253
-0.0313654
-0.0297915
-0.0215773
-0.0338314
-0.0347146
-0.0084232
-0.0201698
-0.0431645
-0.0415939
-0.0286007
-0.0162694
-0.0166198
-0.0136052
-0.025117
-0.0349956
-0.0120446
-0.0150497
-0.00880101
-0.00511333
-0.032845
-0.0309119
-0.00329333
0.00196594
-0.00524217
-0.017079
-0.0267424
-0.0104467
-0.0194008
-0.0127894
-0.0157544
-0.0223811
0.00331052
0.00936844
0.00790247
-0.00792741
-0.00192589
0.00111962
-0.00758234
-0.00484811
-0.00453628
-0.00756163
-0.00990376
-0.0056087
-0.0107845
-0.0115907
-0.00822304
-0.00789339
-0.00880995
-0.00815671
-0.00607532
-0.0146515
-0.00790649
-0.00679481
-0.0022086
-0.000988537
-0.0169399
-0.0108514
-0.0175151
-0.0257473
-0.0174061
-0.0154049
0.0072793
0.0216034
-0.00153911
-0.0233088
-0.0259029
-0.0205347
-0.00841231
-0.00271911
0.00340349
-0.0181307
-0.0513449
-0.0691965
-0.0315781
0.0146731
-0.00824386
-0.0171163
-0.0147366
-0.0399219
-0.0595329
-0.0124849
0.0312452
0.00861368
-0.00248879
-0.00422435
-0.0107904
-0.0134006
-0.0152638
-0.0145635
-0.00643943
0.00102604
-0.00518466
-0.0170232
-0.0133798
-0.0160929
-0.0169659
-0.0137865
-0.0143474
-0.0164668
-0.019007
-0.0258871
-0.0240912
-0.0206695
-0.0237336
-0.0214455
-0.0210016
-0.0226134
-0.0054864
-0.0087998
-0.0396904
-0.0232388
-0.012459
-0.0262985
-0.0326448
-0.0293353
-0.027173
-0.027946
-0.0164488
-0.0115023
-0.0149717
-0.0167807
-0.0109178
-0.0114377
0.00154422
0.0078637
-0.0106774
-0.00629172
0.000816327
-0.00652981
-0.00146183
0.00594697
-0.0083115
-0.0161801
-0.0115411
-0.00922727
0.00796123
0.00323684
0.00180262
0.0108327
0.00745519
-0.0042608
-0.00831239
-0.000761883
-0.00073049
0.00461323
0.00406994
-0.00757105
-0.00451085
0.01108
0.00507814
0.00341832
0.0141005
0.0121903
0.0168116
0.0241347
0.0293595
0.030695
0.0333392
0.0524592
0.0511755
0.0225477
0.0355701
0.0621741
0.0492343
0.0305791
0.0310079
0.0373134
0.057302
0.0688124
0.0567302
0.063999
0.0696269
0.0536852
0.0493005
0.0536435
0.0669124
0.0713128
0.0570365
0.0592422
0.0520408
0.0444844
0.044561
0.0391965
0.0382617
0.0435855
0.067972
0.0582201
0.0551409
0.0695784
0.0614244
0.0766294
0.0702071
0.0682326
0.0798355
0.0871876
0.0824852
0.0669287
0.0637032
0.0589618
0.0528096
0.0422935
0.0373978
0.0360457
0.0311076
0.035413
0.0567684
0.0269752
-0.016153
-0.0147704
-0.00598085
0.00117187
0.00270657
-0.00629766
-0.00570931
0.00864347
0.00195572
-0.00157464
-0.00376598
-0.00447036
-0.00458804
-0.0190776
-0.01996
-0.0193156
-0.017276
-0.0210116
-0.0127145
-0.0185798
-0.0287867
-0.00648028
-0.0317574
-0.0416584
-0.024162
-0.0301866
-0.0335998
-0.0372319
-0.0358918
-0.0323861
-0.0305378
-0.0302044
-0.0332918
-0.0397637
-0.0326445
-0.0290168
-0.036013
-0.0388032
-0.0355775
-0.0325267
-0.0358242
-0.0456091
-0.0319722
-0.0309466
-0.0455052
-0.0415643
-0.0349905
-0.0226138
-0.0282455
-0.0336974
-0.0408002
-0.0484198
-0.0374697
-0.0269194
-0.0307976
-0.0381903
-0.0322318
-0.0270903
-0.0189515
-0.0140006
-0.0154042
-0.0232944
-0.0237551
-0.026814
-0.0394397
-0.0295446
-0.0279937
-0.0396181
-0.0452329
-0.0416542
-0.0597178
-0.105297
-0.125313
-0.127744
-0.111623
-0.102036
-0.140116
-0.170033
-0.165969
-0.161107
-0.166607
-0.174593
-0.164144
-0.138279
-0.148963
-0.127105
-0.102572
-0.0721953
-0.015794
-0.0101892
0.00677487
0.0432172
0.0702098
0.0897695
0.140857
0.193383
0.234214
0.293188
0.345129
0.382864
0.420241
0.471142
0.491496
0.496284
0.502545
0.513365
0.516878
0.497246
0.499645
0.489249
0.475214
0.484657
0.434651
0.381212
0.372299
0.33882
0.309641
0.3056
0.295519
0.288227
0.291569
0.286431
0.281739
0.258476
0.234678
0.233431
0.234869
0.223154
0.203464
0.188975
0.164841
0.160184
0.14008
0.0975493
0.0665566
0.0660148
0.0907953
0.0687383
0.0376661
0.00739979
-0.0192214
-0.0183238
-0.0619872
-0.106239
-0.12505
-0.155335
-0.175964
-0.198772
-0.220576
-0.237192
-0.254456
-0.287237
-0.311451
-0.305069
-0.317121
-0.336691
-0.349911
-0.36695
-0.379995
-0.388232
-0.398831
-0.405926
-0.408603
-0.413893
-0.435766
-0.465138
-0.467874
-0.461804
-0.428736
-0.419475
-0.438849
-0.44272
-0.447002
-0.406663
-0.365732
-0.341294
-0.324489
-0.327493
-0.289502
-0.268713
-0.261305
-0.24342
-0.226149
-0.205525
-0.210516
-0.191029
-0.16692
-0.172007
-0.162087
-0.131958
-0.117434
-0.0973714
-0.0956759
-0.0973186
-0.0853358
-0.098826
-0.0919412
-0.0798704
-0.0728218
-0.0670025
-0.0735987
-0.0687567
-0.0745686
-0.0700621
-0.0671977
-0.052872
-0.0369277
-0.0531695
-0.0553846
-0.0493618
-0.0439123
-0.0468886
-0.0512002
-0.0628223
-0.0557981
-0.0412344
-0.0662917
-0.0641698
-0.0490866
-0.0482565
-0.0528702
-0.0640766
-0.0549669
-0.0455646
-0.0588238
-0.053634
-0.0588301
-0.0672086
-0.0395468
-0.0276243
-0.0152455
-0.0232603
-0.0365796
-0.0321828
-0.0321198
-0.0315062
-0.0295125
-0.0303474
-0.0342375
-0.0344047
-0.0320445
-0.0343062
-0.0402788
-0.0299812
-0.0353606
-0.0422975
-0.0346175
-0.0361077
-0.0305377
-0.0216827
-0.0413458
-0.0493785
-0.0306936
-0.0492739
-0.0611759
-0.0575233
-0.051494
-0.0503032
-0.0511828
-0.048359
-0.0510294
-0.0493437
-0.0433885
-0.0501793
-0.0666588
-0.053702
-0.043127
-0.0407137
-0.0422261
-0.0454357
-0.0431433
-0.0481987
-0.0645164
-0.0690835
-0.0199597
-0.0302713
-0.0722033
-0.0579799
-0.0608402
-0.0620149
-0.0677047
-0.0830608
-0.0471684
-0.0220374
-0.0566033
-0.0617361
-0.0432491
-0.0329165
-0.021497
-0.025758
-0.0284987
-0.0265697
-0.0258869
-0.00543966
-0.0232927
-0.0535812
-0.0304963
-0.0202639
-0.0301248
-0.0283117
-0.0210255
-0.0184153
-0.0205646
-0.0174824
-0.0291029
-0.0252917
-0.0198579
-0.0215734
-0.0201954
-0.0154899
-0.0072547
-0.0143396
-0.0186617
-0.0152128
-0.00906016
-0.0113399
-0.0112446
-3.47853e-006
0.00313984
0.00995093
0.00722734
-0.00218181
0.00163937
0.0126828
0.0210173
0.0337814
0.0251693
0.0124112
0.0257518
0.0364273
0.0386419
0.0415464
0.0432238
0.0366814
0.0428494
0.0465889
0.0417046
0.0609642
0.0581214
0.0639395
0.0722144
0.0507948
0.0525963
0.0556114
0.0299097
0.0546312
0.0909749
0.0661773
0.0854874
0.0711435
0.0493495
0.0962559
0.102947
0.0804282
0.0716264
0.0853978
0.105544
0.11183
0.110005
0.103831
0.104102
0.0976641
0.0934367
0.111415
0.118674
0.12636
0.137673
0.141854
0.143153
0.136809
0.130028
0.114957
0.115675
0.135186
0.137415
0.129218
0.106392
0.105698
0.145885
0.141716
0.129986
0.145546
0.154315
0.145292
0.133549
0.148231
0.146541
0.131716
0.125006
0.133652
0.155862
0.147787
0.142509
0.136033
0.125281
0.125109
0.123313
0.133656
0.142884
0.142758
0.142068
0.134664
0.130462
0.130456
0.12772
0.1334
0.127698
0.120855
0.120126
0.118753
0.116948
0.118864
0.119587
0.112122
0.123396
0.109263
0.0935184
0.10292
0.103211
0.0931461
0.0755125
0.0681535
0.0819838
0.0679982
0.03227
0.0659455
0.0912323
0.0703765
0.0866367
0.0902608
0.0494605
0.0563899
0.0651333
0.0506964
0.0690044
0.0809108
0.0742108
0.0546594
0.0409963
0.0519727
0.0603765
0.0350512
0.036911
0.0409504
0.0062441
0.00793941
0.0242435
0.0204034
0.0256799
0.0213226
0.0265449
0.022504
0.0172843
0.0238901
0.00724481
0.00619806
0.0195416
0.0210298
0.00340244
0.00140986
0.00583892
0.00353385
0.00741106
-0.00553295
-0.0152216
-0.00750489
-0.0191739
-0.0229819
-0.00966806
-0.00998259
-0.0157124
-0.019702
-0.0228686
-0.0182097
-0.0148031
-0.0258002
-0.0234109
-0.0218828
-0.0264765
-0.0264411
-0.0279886
-0.0292738
-0.028379
-0.0313056
-0.0439747
-0.0402346
-0.0458748
-0.0516475
-0.0372913
-0.0305565
-0.0312304
-0.0341587
-0.0412608
-0.0425371
-0.0350684
-0.0400082
-0.0385682
-0.0449972
-0.0475567
-0.032495
-0.033022
-0.0382903
-0.04738
-0.0472907
-0.0539408
-0.0471757
-0.0307825
-0.0425114
-0.0461013
-0.0483052
-0.0599134
-0.0577747
-0.0518105
-0.039022
-0.0394914
-0.0483738
-0.0338823
-0.0362658
-0.0257854
-0.0126885
-0.0541855
-0.0614303
-0.046502
-0.0473969
-0.0600303
-0.0742457
-0.0428282
-0.0185246
-0.0360703
-0.0452175
-0.0337578
-0.0365412
-0.0474924
-0.0516183
-0.0400064
-0.0448156
-0.0512621
-0.0225968
-0.0160806
-0.0349601
-0.0484446
-0.058684
-0.0497529
-0.039643
-0.0412646
-0.0384565
-0.0480015
-0.0606478
-0.0511338
-0.0432121
-0.0476752
-0.0463763
-0.0542436
-0.0542874
-0.0305977
-0.0243359
-0.0327199
-0.0350034
-0.03345
-0.0313065
-0.0327794
-0.0260139
-0.0240803
-0.035967
-0.0275816
-0.0187592
-0.0262792
-0.0388877
-0.0443224
-0.0373372
-0.030726
-0.0143435
-0.0191201
-0.0180697
-0.0172873
-0.0419407
-0.0402536
-0.0204819
-0.00988845
-0.0297191
-0.0481797
-0.0384135
-0.0214863
-0.0243801
-0.0449972
-0.0361693
-0.0256718
-0.00924663
-0.0206286
-0.041573
-0.0378781
-0.0574049
-0.0260896
0.0020507
-0.0190823
-0.0286604
-0.0369105
-0.00909042
0.00453645
-0.0132746
-0.00272623
-0.0219584
-0.0250341
0.00106741
-0.014551
-0.010716
-0.00820033
-0.0147449
-0.0210845
-0.0499747
-0.0382147
-0.00266539
0.00573649
0.0139697
0.00693008
-0.00655924
-0.00472975
-0.000843827
0.004831
4.78754e-005
-0.0143956
-0.008637
-0.00273411
-0.00465995
0.00269437
-0.00249102
-0.017983
-0.0165183
0.000172123
-0.00266384
-0.0198256
0.00682114
0.0293328
0.0106805
0.0097511
0.0363605
0.018272
0.00221747
0.0219253
0.00414814
0.00768615
0.0264078
0.024263
0.0172869
0.014596
0.00337793
-0.00112752
0.018349
0.00607965
0.00831126
0.0282419
0.0260013
0.0126368
0.00110801
0.00929224
0.0209975
0.0289809
0.0239713
0.0126961
0.0149082
0.0204121
0.0200823
0.0228758
0.0168362
0.0150893
0.0298315
0.0323108
0.0168008
0.0215737
0.0328747
0.0178975
0.022764
0.0335135
0.0320985
0.0353886
0.0251835
0.0182323
0.0182588
0.0149894
0.0311803
0.0376413
0.0292542
0.0449839
0.0558834
0.0440875
0.0297983
0.0202666
0.0327679
0.0355759
0.0239342
0.00703153
0.000983657
0.002823
0.0144956
0.0548668
0.0647336
0.0608427
0.0589148
0.0616734
0.0888731
0.0793235
0.0579062
0.0755877
0.0784249
0.0715581
0.0811974
0.0726026
0.0640568
0.0658392
0.0641979
0.0553249
0.0623371
0.0652648
0.0720486
0.0695439
0.0425346
0.0517546
0.0589152
0.0597336
0.0699594
0.0654001
0.0589393
0.0525487
0.0642923
0.06832
0.0678532
0.0941627
0.102543
0.0872818
0.0776305
0.071781
0.062847
0.0528527
0.0367294
0.0573236
0.0754122
0.0577231
0.0469598
0.0398318
0.0430844
0.0365232
0.019033
0.0145892
0.0402618
0.0462093
0.0296611
0.0238941
0.0152077
0.0198941
0.0172102
0.0133515
0.0124328
0.00447666
0.0124114
0.0110778
-0.00175562
0.00262921
-0.00107126
-0.00615299
-0.00687541
-0.0154357
-0.0239494
-0.0254389
-0.01983
-0.0169598
-0.0195921
-0.0204415
-0.0222009
-0.0235713
-0.0232914
-0.0211631
-0.0240715
-0.0319963
-0.0220138
-0.0222891
-0.0240607
-0.0126172
-0.0152689
-0.0163174
-0.0170269
-0.018597
-0.0201432
-0.0216859
-0.0221471
-0.026359
-0.0270795
-0.0320161
-0.0338545
-0.018289
-0.0120521
-0.0209423
-0.0248445
-0.0287406
-0.0187111
-0.0139272
-0.0156348
-0.0141308
-0.0107338
-0.00875249
-0.00545567
0.0019546
0.00936297
-0.00624832
-0.0277982
-0.0131132
-0.016943
-0.0139859
-0.0109185
-0.033428
-0.0482435
-0.0401612
-0.0170635
-0.0389319
-0.0598517
-0.0620024
-0.083639
-0.0900681
-0.0976171
-0.121603
-0.1313
-0.151914
-0.162561
-0.144256
-0.162908
-0.188334
-0.183278
-0.175426
-0.179449
-0.190026
-0.165881
-0.126808
-0.105691
-0.0925158
-0.0583761
-0.0244594
0.000969155
0.0435926
0.0790738
0.113089
0.137357
0.172671
0.238918
0.30709
0.349288
0.385706
0.423614
0.455332
0.483202
0.496549
0.505651
0.506714
0.515847
0.511059
0.504249
0.499222
0.507707
0.49438
0.4539
0.421937
0.378207
0.347503
0.318711
0.296826
0.278949
0.291283
0.307105
0.313747
0.304554
0.263855
0.243926
0.259969
0.254094
0.229299
0.219478
0.19143
0.169875
0.182487
0.153926
0.103865
0.0900279
0.0702154
0.0523251
0.0413606
0.0204314
0.00974128
-0.00543184
-0.0307635
-0.051915
-0.0755667
-0.118449
-0.173371
-0.156234
-0.166043
-0.239907
-0.264029
-0.274685
-0.281193
-0.292885
-0.308076
-0.31203
-0.328937
-0.379894
-0.408899
-0.390844
-0.383527
-0.388676
-0.405973
-0.422089
-0.437714
-0.464587
-0.46552
-0.460418
-0.458288
-0.467234
-0.454455
-0.412216
-0.416829
-0.42262
-0.405899
-0.378928
-0.350893
-0.333889
-0.312912
-0.299858
-0.280533
-0.255673
-0.270969
-0.250097
-0.193751
-0.186668
-0.176659
-0.156628
-0.160577
-0.160609
-0.147918
-0.129766
-0.119459
-0.113319
-0.101651
-0.0977146
-0.0876968
-0.0876961
-0.0907119
-0.0916451
-0.0863074
-0.078439
-0.0917355
-0.0938772
-0.08956
-0.065524
-0.0515791
-0.0636247
-0.0756608
-0.0787866
-0.0631893
-0.0651257
-0.0568985
-0.0428257
-0.0402099
-0.0213093
-0.0383125
-0.0653216
-0.0643415
-0.0642773
-0.0559438
-0.0620849
-0.0723987
-0.0595669
-0.0672853
-0.0712942
-0.0624038
-0.0495114
-0.0386125
-0.0608019
-0.0712653
-0.0452588
-0.0350831
-0.0650562
-0.0684834
-0.0496245
-0.0466683
-0.0587157
-0.072771
-0.0787397
-0.0804379
-0.0496091
-0.05595
-0.0761425
-0.0658841
-0.0809164
-0.0970512
-0.0781884
-0.0583241
-0.0545521
-0.0700566
-0.0730939
-0.0709661
-0.0849913
-0.0694725
-0.0466669
-0.0567616
-0.0708572
-0.074957
-0.0709655
-0.0656976
-0.0768977
-0.0752648
-0.050481
-0.0602429
-0.076293
-0.075445
-0.0765996
-0.0807557
-0.0710099
-0.0675466
-0.0736211
-0.0655343
-0.0736029
-0.0661287
-0.0533682
-0.062508
-0.0596474
-0.0587878
-0.0558326
-0.0555967
-0.0648249
-0.0752173
-0.075458
-0.0712454
-0.0673217
-0.0344983
-0.0316741
-0.063848
-0.0581188
-0.0596734
-0.056768
-0.0457043
-0.0527991
-0.0523546
-0.0606281
-0.0668068
-0.059989
-0.0571739
-0.0552626
-0.0530676
-0.0473312
-0.043751
-0.0560096
-0.0538064
-0.0528857
-0.0480622
-0.0232385
-0.0224151
-0.00869106
-0.033255
-0.0593669
-0.0383313
-0.0144646
-0.00506538
-0.00438753
-0.00661487
-0.000842677
-0.0040681
-0.00719076
0.0349785
0.020699
0.00327215
0.0150127
0.0132199
0.0281477
0.0359794
0.0418096
0.0476347
0.0463531
0.0337747
0.0266403
0.0416472
0.0484806
0.0478424
0.0654809
0.0632157
0.0549541
0.0597008
0.060558
0.0707153
0.0804311
0.0940074
0.0857588
0.0709817
0.0799257
0.0697699
0.0546049
0.0674242
0.0831263
0.0975242
0.0933624
0.083341
0.0981465
0.113483
0.100102
0.0898214
0.13055
0.135294
0.105155
0.105319
0.104041
0.108621
0.125371
0.134589
0.127527
0.127364
0.131192
0.129006
0.130705
0.1181
0.125933
0.127907
0.103707
0.137039
0.171653
0.137373
0.119104
0.13185
0.126713
0.131879
0.146605
0.114191
0.101946
0.121167
0.120105
0.145941
0.149769
0.138586
0.143289
0.137689
0.138531
0.133513
0.133321
0.13666
0.129277
0.128994
0.124719
0.129457
0.130312
0.123474
0.124199
0.116789
0.105555
0.107795
0.121758
0.0916244
0.0904829
0.142328
0.148059
0.111485
0.0893476
0.0963419
0.0711531
0.0824845
0.131089
0.10879
0.0835002
0.100226
0.110075
0.107237
0.097973
0.093582
0.0913769
0.0866522
0.0846555
0.100564
0.0984647
0.0593489
0.0621086
0.0665515
0.06442
0.0744145
0.0502233
0.0235516
0.0511523
0.0768523
0.0605673
0.0553074
0.0461777
0.0413688
0.0431378
0.0527837
0.0566181
0.0499334
0.0459746
0.0349148
0.0368397
0.0377388
0.0325067
0.0119525
0.0288194
0.0318108
0.0126181
0.0319505
0.0335648
0.0302885
0.0430357
0.0428165
0.0527356
0.0269808
-0.0101959
0.00749885
0.000372595
-0.000283932
-0.00322606
-0.00727867
-0.00235327
-0.00045645
0.0143108
0.00276232
0.0106446
0.0346627
0.0105083
0.00288831
0.0145553
-0.00566791
0.0061285
0.0199512
0.00690255
0.00616951
0.00300614
-0.00129094
0.00158844
-0.00106229
-0.000995363
-0.00603304
-0.0120852
0.00084251
0.0106492
0.0101482
0.0160846
0.0161602
-0.0179377
-0.0195061
-0.00379463
-0.0069812
-0.00515592
-0.0143124
-0.0183483
-0.0230744
-0.0202338
-0.013526
-0.0116368
-0.0122698
-0.0231757
-0.0241764
-0.0321825
-0.0252013
-0.0233365
-0.0527789
-0.0607882
-0.0326651
-0.0177215
-0.0512524
-0.0535083
-0.0296677
-0.0428193
-0.0379555
-0.0249715
-0.0306764
-0.0268117
-0.0380773
-0.0431601
-0.0337647
-0.0166408
-0.0236093
-0.0505811
-0.0595654
-0.0446668
-0.0220744
-0.0270446
-0.0328777
-0.0448882
-0.0613738
-0.0525851
-0.0437005
-0.0368094
-0.0359039
-0.0378801
-0.0385479
-0.0446497
-0.0428853
-0.040941
-0.0395202
-0.0393728
-0.0403197
-0.03627
-0.0282298
-0.0213017
-0.0336754
-0.0376093
-0.0294048
-0.0283758
-0.0328191
-0.0319854
-0.0330546
-0.0311178
-0.0211683
-0.0191027
-0.0197311
-0.0287961
-0.0439981
-0.041024
-0.0315767
-0.0324047
-0.0373274
-0.0432532
-0.0401876
-0.0392325
-0.0475768
-0.0374778
-0.00623476
-0.0121607
-0.0405539
-0.0436685
-0.0336868
-0.0147014
-0.0207071
-0.0356027
-0.0292003
-0.0242425
-0.0374277
-0.0254406
0.00301903
-0.0327948
-0.0437011
-0.039607
-0.0605168
-0.0505318
-0.0298395
-0.0116951
-0.024399
-0.0262675
-0.0246014
-0.0266559
-0.0166155
-0.0285767
-0.0305383
-0.0214009
-0.0189763
-0.0470069
-0.0501913
-0.025211
-0.0207618
-0.0235853
-0.0294947
-0.0373925
-0.0352801
-0.0272567
-0.0375109
-0.0403021
-0.060936
-0.0247331
0.0120044
-0.0229813
-0.0358801
-0.0267933
-0.0217214
-0.0335657
-0.0361382
-0.0211789
-0.00138023
-0.0204186
-0.0589881
-0.0508286
-0.0197486
0.00735635
0.00249014
-0.0394465
-0.0566457
-0.043371
-0.00792977
0.00535528
-0.0148251
-0.0227368
-0.0255751
-0.0114436
-0.0143448
-0.0211806
-0.0217618
-0.0208253
-0.00906003
-0.0211374
-0.019744
-0.00761155
-0.000542863
-0.00143199
0.00272483
0.00882915
0.00168952
-0.00496035
-0.0264357
-0.0250693
-0.00117745
0.00497089
-0.00782149
-0.00166086
0.0174496
0.0156101
0.0100129
0.00692422
0.0116589
0.0145498
0.0169154
0.022028
0.0120873
0.00520015
0.0173709
0.0275016
0.0304006
0.00779999
-0.00261854
-0.00319112
0.00876194
0.0169672
-0.00977661
-0.0135795
-0.00944732
0.0117193
0.0251152
0.0170103
0.0277226
0.0315885
0.0159291
-0.00698182
0.0280571
0.0621574
0.0373269
0.0344668
0.033383
0.072807
0.0684215
0.0478889
0.0868851
0.0751331
0.0734281
0.0706573
0.0778127
0.0919916
0.0853873
0.0902691
0.0889569
0.0897898
0.0900933
0.0721467
0.076156
0.0932353
0.0853947
0.0815381
0.0664725
0.0569271
0.0505802
0.0790914
0.0861353
0.0694307
0.0657679
0.0500301
0.0682057
0.0693904
0.0677762
0.0736333
0.0762838
0.0840701
0.0683218
0.0683222
0.0882828
0.0793222
0.0724529
0.0845807
0.0785147
0.0729846
0.0666673
0.0552182
0.0523055
0.0446427
0.0310159
0.0323055
0.0454983
0.0396887
0.0310682
0.0219069
0.0165277
0.0152752
0.000481644
0.00143449
0.0173493
0.0153483
0.00444737
0.0165542
0.0194787
0.0119504
0.0146445
0.0272147
0.0373269
0.0126906
-0.0189137
-0.0206117
-0.0094204
-0.00524694
-0.011899
-0.0401044
-0.0455374
-0.015848
-0.0066963
-0.00578775
-0.00290276
-0.0259182
-0.0228195
0.0123
0.018248
-0.000250711
-0.023528
-0.0169381
0.00217908
0.00953069
-0.00110201
-0.000842331
0.0252956
-0.00359233
-0.0183111
-0.00458395
-0.0140785
-0.00243994
0.00267397
-0.00944103
-0.000565168
0.020425
0.0135438
0.0136938
-0.0193255
-0.019797
0.00794359
-0.0094597
-0.00735015
0.00297638
0.00730117
0.0115034
0.00157154
-0.0183955
-0.00919745
-0.0105509
-0.00911779
0.00746156
-0.000467082
-0.00560673
-0.00973814
-0.0237411
-0.0316064
-0.0294363
-0.0434348
-0.054888
-0.0671363
-0.0895407
-0.0984476
-0.123154
-0.132879
-0.138742
-0.156749
-0.181797
-0.197677
-0.210103
-0.246731
-0.1972
-0.137157
-0.146302
-0.154416
-0.136386
-0.108208
-0.0939928
-0.0689545
-0.0373881
0.00535933
0.0369223
0.0479521
0.0851514
0.150306
0.192305
0.222151
0.288959
0.34195
0.391423
0.440727
0.47323
0.481276
0.480155
0.522077
0.515148
0.48636
0.504594
0.522632
0.512178
0.509886
0.493392
0.458354
0.431481
0.369563
0.336494
0.327279
0.31404
0.325
0.332461
0.335773
0.3403
0.326381
0.296302
0.274258
0.262347
0.259553
0.24875
0.228718
0.204156
0.170722
0.149058
0.128834
0.117773
0.113686
0.0974838
0.0641859
0.0479194
0.0409065
0.0044416
-0.0251386
-0.0614881
-0.0832852
-0.0982626
-0.127235
-0.144116
-0.161929
-0.183799
-0.213948
-0.227664
-0.251281
-0.27314
-0.292555
-0.329789
-0.326021
-0.31133
-0.344689
-0.37197
-0.373955
-0.386359
-0.385853
-0.400103
-0.418801
-0.424696
-0.431613
-0.430477
-0.448316
-0.46926
-0.478526
-0.465398
-0.432195
-0.41424
-0.418834
-0.416223
-0.399577
-0.372967
-0.319364
-0.302638
-0.327578
-0.34491
-0.319324
-0.267499
-0.250138
-0.243997
-0.224912
-0.206811
-0.199723
-0.185772
-0.178169
-0.170186
-0.152132
-0.140322
-0.124046
-0.115542
-0.100969
-0.0863986
-0.0888011
-0.0880543
-0.0869531
-0.0832298
-0.0795806
-0.0716953
-0.0792877
-0.0791246
-0.0650467
-0.0669846
-0.0609658
-0.0681119
-0.0746263
-0.0737742
-0.0898559
-0.0721773
-0.0480189
-0.0446088
-0.0571029
-0.0555694
-0.040981
-0.0492178
-0.0650808
-0.0583108
-0.0306121
-0.0496827
-0.0692459
-0.0630757
-0.0640176
-0.0680042
-0.0820621
-0.0613085
-0.035938
-0.0552054
-0.0574021
-0.0598263
-0.0707533
-0.064409
-0.0669471
-0.0544346
-0.0548455
-0.0600643
-0.0648972
-0.0530912
-0.065358
-0.112405
-0.0889617
-0.0668042
-0.0667774
-0.0558125
-0.0519331
-0.0712529
-0.0869654
-0.0683228
-0.0526099
-0.0581182
-0.0611179
-0.0708316
-0.083412
-0.0619262
-0.0423486
-0.0545647
-0.0643843
-0.059559
-0.0658058
-0.0798353
-0.0643802
-0.0562199
-0.0762037
-0.0842662
-0.0664318
-0.0578114
-0.0565929
-0.0660233
-0.0853848
-0.0739662
-0.0350322
-0.0477993
-0.0824176
-0.0469542
-0.0523848
-0.0725983
-0.0414076
-0.0545667
-0.0557964
-0.0618116
-0.0813489
-0.0621918
-0.063191
-0.0592799
-0.0604815
-0.0769062
-0.0707406
-0.0732285
-0.0696472
-0.0682803
-0.0683904
-0.0661933
-0.0558367
-0.0383852
-0.0408154
-0.0470186
-0.0408111
-0.0489521
-0.0451669
-0.0321737
-0.0317107
-0.0125623
-0.0145803
-0.0216985
0.014061
-0.00240873
-0.041292
-0.0318315
-0.0113009
-0.00697898
-0.00412426
0.0070505
-0.00360098
-0.013145
-0.00956061
-0.00774143
-0.0135062
-0.0396179
-0.0338062
0.00920857
-0.00331323
0.00584195
0.0358211
0.0226907
0.0274285
0.033927
0.0160042
0.0224208
0.0339058
0.021182
0.042993
0.0531294
0.0494483
0.0588865
0.0524669
0.0532965
0.0635557
0.078481
0.0673415
0.0574106
0.070941
0.0661405
0.0521503
0.0710322
0.0887638
0.0792395
0.0732799
0.07065
0.0810836
0.0913092
0.0890766
0.0851799
0.0834785
0.088911
0.0825012
0.100356
0.103653
0.0946275
0.0945412
0.0886637
0.0972435
0.0984842
0.103525
0.0974247
0.10416
0.102625
0.0846408
0.0979767
0.111371
0.108558
0.107291
0.117369
0.116655
0.115092
0.120702
0.0965913
0.110935
0.136962
0.129935
0.112118
0.0987529
0.097039
0.114111
0.15603
0.128773
0.104234
0.122235
0.117551
0.125921
0.118085
0.0917973
0.107861
0.125143
0.124587
0.139221
0.107149
0.0855448
0.106632
0.104668
0.102915
0.0976114
0.102954
0.128075
0.104033
0.0957986
0.0992671
0.0842639
0.0905632
0.0849106
0.0850476
0.086737
0.0797863
0.0810658
0.0955226
0.0951846
0.0921576
0.092614
0.0807767
0.0758963
0.0732277
0.0750049
0.0864186
0.078597
0.0685927
0.0693777
0.0538474
0.0668304
0.0641066
0.0504272
0.0625396
0.065213
0.0592603
0.0655557
0.0740479
0.0617641
0.0658072
0.0523455
0.0515963
0.0608054
0.0472226
0.0370762
0.0255514
0.0387729
0.0457938
0.0425889
0.0490575
0.0420328
0.0332987
0.0276107
0.0307208
0.0444021
0.0384704
0.0308014
0.0383429
0.0431209
0.0352362
0.0208534
0.00618544
0.0174733
0.0309636
0.00188274
-0.00958632
0.000679795
-0.00326619
-0.000448375
0.0100348
0.0190207
0.00229715
-0.00537714
-0.010248
-0.0135411
-0.00343991
-0.015068
0.00252295
0.00135821
0.00853729
0.0312242
0.00463076
-0.0150058
-0.0354448
-0.0484648
-0.0468841
-0.0425785
-0.0494939
-0.0596528
-0.0241503
-0.0121443
-0.0228424
-0.036483
-0.0383101
-0.0175486
-0.0303825
-0.0339383
-0.0342722
-0.0493637
-0.0441184
-0.0303758
-0.0299252
-0.0275274
-0.0259379
-0.0379312
-0.0353225
-0.0259849
-0.0348625
-0.0389764
-0.0344221
-0.0263597
-0.0219983
-0.0225766
-0.0313392
-0.0485136
-0.0352863
-0.0137839
-0.0260612
-0.0370982
-0.0338005
-0.0230077
-0.0215089
-0.0250649
-0.0114308
-0.0103798
-0.025726
-0.0223433
-0.0241759
-0.0172443
0.00135736
-0.0105305
-0.0211182
-0.0196455
-0.014357
-0.0184787
-0.0271968
-0.0316386
-0.0198603
-0.0128402
-0.0144827
-0.0116273
-0.0130645
-0.0165562
-0.0128591
-0.0117479
-0.020038
-0.0236037
-0.0313898
-0.0194168
-0.00477821
0.00736842
0.00481563
-0.00367405
-0.0093445
-0.0454223
-0.0470942
0.0035138
0.0193494
-0.00156545
-0.00213713
0.00879246
0.0124311
0.0010145
-0.0102171
-0.00604162
-0.0142761
0.00620548
0.0314603
0.0134703
0.00514194
-0.000683124
-0.00921174
-0.00767898
-0.000324744
0.0126298
0.0200034
0.0176714
0.0205782
-0.0102583
-0.0277486
-0.00673806
-0.021022
0.000633328
0.0224686
0.012707
-0.0014697
-0.0159377
-0.00164216
-0.00260142
0.0100937
0.0212891
0.0147818
0.0123395
0.00572366
0.00671321
0.00612653
-0.00316123
-0.00520608
-0.00598934
-0.0114196
-0.0113419
-0.0255533
-0.0388228
-0.0119131
-0.000603031
0.00328947
0.0118884
-0.00275228
-0.00565387
0.0140903
0.0123247
0.0128456
0.018421
-0.0151861
-0.0021951
0.0352168
0.0329313
0.0358976
0.0171379
0.00774475
0.0118736
0.000727467
-0.00346388
-0.0194664
-0.0190646
-0.0110818
-0.0133979
-0.00896198
0.00820366
0.00300506
-0.0087151
0.00683864
0.00243559
-0.000159236
-0.000162058
-0.00674863
-0.00103688
0.000925067
-0.013837
-0.0112263
0.00591715
0.00780002
0.00965455
0.00571528
-0.00680404
-0.0107313
-0.0209528
-0.0144235
0.00182834
-0.00229595
-0.00295708
-0.00136154
-0.00174081
-0.00232875
-0.00133848
0.00505879
0.00475065
0.00369413
0.00592007
0.0195306
0.0226888
0.0116022
0.0135015
0.00661926
0.00616658
0.0183128
0.0391696
0.0647792
0.035109
-0.00294726
-0.0335579
-0.0369338
0.0136944
0.0220984
-0.00192901
-0.00855455
-0.0178858
0.0070403
0.0312616
0.0228852
0.0180752
0.0350377
0.0430021
0.018196
0.0308237
0.0480474
0.0579719
0.0726329
0.0679931
0.0559461
0.063327
0.0699302
0.0715291
0.0698981
0.0648343
0.0811782
0.0748294
0.0817557
0.071996
0.0636561
0.0668984
0.0589268
0.0519654
0.055237
0.075942
0.0572382
0.0452233
0.0529273
0.0563102
0.062266
0.056632
0.0582054
0.077764
0.0930882
0.0809814
0.0872886
0.096913
0.0958256
0.0870663
0.0587405
0.0440084
0.0440706
0.0571498
0.0714679
0.0612232
0.0555696
0.0306022
0.00734737
0.0487627
0.0587422
0.0361235
0.0217026
0.0172557
0.0235626
-0.00557276
-0.0203036
-0.00872395
0.00114195
0.0143409
0.0119851
-0.00675973
-0.00869066
-0.0135863
-0.000228193
0.0065774
-0.0020203
-0.00393188
-0.0231362
-0.000681421
0.00832049
-0.00829641
0.00326357
-0.0362216
-0.0459702
-0.00917283
-0.0289735
-0.0314579
-0.000644201
0.0025201
0.000150517
0.00341392
-0.00948744
-0.0273364
-0.0189214
-0.0130563
-0.00459888
0.0075346
-0.00363925
-0.0141731
-0.0401836
-0.0298382
-0.0033374
-0.0188959
-0.0217233
-0.0100025
-0.015871
-0.025409
-0.0186307
-0.0304829
-0.00785048
-0.00656721
-0.035434
-0.0262385
-0.0217743
-0.0118611
-0.0133632
-0.0232037
-0.0143712
-0.00291981
-0.0129646
-0.0136707
-0.00123615
-0.00687188
-0.0347827
-0.0341466
-0.0190954
-0.0287022
-0.0319756
-0.0468593
-0.0582373
-0.0529449
-0.0537846
-0.0745469
-0.0910315
-0.095066
-0.105522
-0.11033
-0.129482
-0.168038
-0.188116
-0.183882
-0.196529
-0.19226
-0.185273
-0.194734
-0.179766
-0.154435
-0.136746
-0.126639
-0.0959999
-0.0526678
-0.0334531
-0.00815692
0.00340986
0.0154079
0.108957
0.164123
0.192914
0.230271
0.258082
0.314188
0.336406
0.370539
0.420401
0.450834
0.472721
0.482
0.482666
0.482775
0.489438
0.49781
0.489074
0.478422
0.462038
0.408077
0.359651
0.34782
0.333586
0.305896
0.290641
0.290671
0.303809
0.31887
0.308673
0.302063
0.272921
0.240181
0.234831
0.210922
0.21856
0.212895
0.172105
0.14538
0.131906
0.115842
0.090311
0.0813822
0.0780676
0.0863202
0.056037
0.00706696
-0.00977327
-0.0426797
-0.0728425
-0.0974276
-0.12356
-0.13531
-0.138689
-0.160645
-0.195073
-0.22182
-0.246705
-0.26353
-0.276104
-0.287259
-0.297868
-0.307859
-0.314218
-0.348994
-0.392297
-0.380282
-0.387134
-0.41305
-0.426225
-0.434827
-0.437983
-0.442765
-0.454185
-0.467194
-0.464683
-0.4775
-0.451458
-0.429354
-0.440993
-0.427208
-0.424871
-0.448911
-0.415317
-0.336139
-0.32848
-0.333497
-0.312377
-0.298325
-0.288534
-0.258178
-0.243382
-0.243222
-0.22971
-0.218793
-0.189362
-0.174257
-0.162288
-0.146251
-0.138947
-0.117208
-0.103903
-0.0969615
-0.0923735
-0.103195
-0.111539
-0.097569
-0.0964749
-0.0944609
-0.0857232
-0.091431
-0.0867101
-0.06563
-0.071197
-0.0763549
-0.0709905
-0.0789433
-0.0770225
-0.0750246
-0.0777541
-0.0780422
-0.0717639
-0.0748494
-0.0722921
-0.0441479
-0.0325297
-0.0365978
-0.0445453
-0.0365775
-0.058892
-0.0816598
-0.0670074
-0.0650027
-0.0256489
-0.0148841
-0.0355904
-0.0456056
-0.0607377
-0.0627833
-0.0635469
-0.0348599
-0.0365973
-0.0446918
-0.0391406
-0.0390042
-0.0364009
-0.0444955
-0.0494832
-0.0545703
-0.0499529
-0.0237973
-0.0102238
-0.0302964
-0.0490177
-0.0473272
-0.0511056
-0.0561872
-0.0453765
-0.0384664
-0.0292599
-0.0345892
-0.0443335
-0.0414298
-0.0378791
-0.0407458
-0.0491524
-0.0462675
-0.0602881
-0.0474212
-0.0258614
-0.029773
-0.0402756
-0.0434314
-0.0472385
-0.058631
-0.0414851
-0.044631
-0.0558706
-0.0519971
-0.0408142
-0.0331556
-0.0309019
-0.0249931
-0.0344343
-0.0372953
-0.0477038
-0.0528324
-0.0788817
-0.0780605
-0.0195627
-0.00454807
-0.00713012
-0.0333666
-0.0442523
-0.0457181
-0.046637
-0.0378369
-0.0381178
-0.0352718
-0.0281036
-0.0264492
-0.0341933
-0.0352803
-0.0377191
-0.0285827
-0.0300001
-0.0301451
-0.0262185
-0.0244282
-0.012969
-0.0250034
-0.0326465
-0.0289536
-0.0229143
-0.0154532
-0.0174385
-0.0216946
-0.00801933
0.00779704
0.00395043
0.0226031
0.0358683
-0.0022021
-0.0236241
0.00352328
0.0251073
0.0279528
0.0208576
0.0176124
0.0110226
0.0269279
0.0392182
0.0228439
0.0168191
0.00222174
0.0171864
0.0398925
0.0455452
0.0463545
0.0555138
0.0611824
0.0584687
0.0444195
0.0440155
0.0571744
0.0447589
0.0635899
0.0864647
0.0651766
0.0575327
0.0663756
0.065599
0.0711579
0.0810729
0.0924283
0.0933631
0.084057
0.0807124
0.100536
0.103719
0.0864152
0.087728
0.1027
0.118311
0.111477
0.101057
0.101872
0.0977162
0.0863846
0.0936878
0.112474
0.108642
0.108153
0.11903
0.12536
0.126284
0.10898
0.10065
0.109497
0.119707
0.121433
0.123774
0.112769
0.112394
0.130561
0.128131
0.136925
0.122742
0.113376
0.130642
0.123391
0.118525
0.113004
0.113856
0.125169
0.130085
0.127785
0.13147
0.128342
0.103586
0.116347
0.116723
0.100748
0.118395
0.108576
0.106148
0.107933
0.0847294
0.105336
0.11757
0.103288
0.108395
0.107854
0.107696
0.100009
0.0689332
0.0726466
0.12535
0.122247
0.100521
0.0983144
0.0887211
0.0937739
0.091443
0.109639
0.0942194
0.0640048
0.0737938
0.0863873
0.0886061
0.0843075
0.0993999
0.0878512
0.0606914
0.040009
0.0519446
0.0646784
0.0354102
0.0333387
0.0546443
0.063472
0.0569149
0.0420044
0.0377077
0.0429324
0.0355351
0.0343351
0.0321327
0.0337284
0.030943
0.0336347
0.0307137
0.0231497
0.0259762
0.0142865
0.0252249
0.0219729
0.00973036
0.0286963
0.0210499
-0.00106839
0.0314297
0.0515741
0.0283305
0.0226028
0.0112433
0.0170693
0.0148801
0.00747687
0.00868177
0.000355987
0.0114134
0.0358298
0.0266446
0.00495485
-9.38617e-005
-0.0173202
-0.015525
-0.0185104
-0.00909946
0.00684663
0.0024142
-0.028373
-0.0505563
-0.0112349
-0.00755543
-0.0106999
-0.0118689
-0.0242609
-0.0410529
-0.0573832
-0.0263353
-0.00692966
-0.0101231
-0.021815
-0.0258562
-0.0250631
-0.029235
-0.0231745
-0.0227065
-0.0226958
-0.0180606
-0.0257802
-0.0308979
-0.0175156
-0.0297841
-0.0338886
-0.0290308
-0.0534082
-0.0521957
-0.0335266
-0.0164792
-0.0140704
-0.0302557
-0.0479332
-0.0429526
-0.0531292
-0.0392621
-0.00715311
-0.0196274
-0.0215526
-0.0228504
-0.0285043
-0.0485612
-0.0401267
-0.0193531
-0.0154246
0.0204596
0.0141048
-0.0376626
-0.0499776
-0.0459202
-0.0355061
-0.0246869
-0.0203552
-0.0183555
-0.0315005
-0.0305887
-0.0264236
-0.0218332
-0.022687
-0.0279096
-0.0184875
-0.0144703
-0.0169658
-0.0221305
-0.0201531
-0.00823586
-0.0115745
-0.0083398
-0.00466027
-0.0156098
-0.0122004
-0.0123805
-0.0250402
-0.0290225
-0.00913769
-0.00918154
-0.00995709
-0.00129386
-6.4188e-005
-0.0081965
-0.034683
-0.0255798
-0.0239995
-0.00910103
0.000926146
-0.0211209
-0.0134385
-0.00219567
0.00248282
-0.00647272
-0.00406993
0.000747199
0.00709299
-0.011872
-0.0179571
0.0110414
-0.0126799
-0.00695236
-0.00365126
-0.0157077
-0.0181162
-0.00693447
0.0167229
-0.00430537
-0.00121312
0.00879419
0.00151979
-0.000206034
0.00649144
0.00354404
-0.00305316
-0.00124106
-0.00290179
0.00712982
0.0120502
0.011067
0.00737851
0.0041543
0.00751867
0.00753864
0.00121686
0.00349116
0.00824115
0.00229966
0.000468711
0.00153936
0.00131239
-0.000382244
-0.00166874
-0.00161302
-0.00621619
-0.00541439
-0.00408468
-0.00105709
-0.00413148
-0.00509737
-0.00075437
0.00106825
0.0114947
0.0165901
-0.0136467
-0.0262839
-0.00644797
-0.00731014
-0.00607156
-0.015944
-0.0481294
-0.0337991
0.00692557
0.00598432
-0.00961944
-0.00981849
0.0225141
0.00855235
-0.0245027
-0.0184413
-0.0260639
-0.00720021
0.0282741
0.0194242
0.0202475
0.0306751
-0.0164221
-0.0292213
-0.0129282
-0.0137552
-0.011903
-0.013541
-0.00579034
-0.0107119
-0.0143009
-0.00848703
-0.0021409
-0.0110871
-0.0161221
0.00296687
-0.00461865
-0.00470947
-0.00218493
-0.000984209
0.00888758
0.00235971
0.00430232
0.00753964
0.00686727
0.00807199
0.00795267
0.00934012
0.00611354
0.00221225
0.00464192
-0.00252593
-0.00416117
-0.00208746
-0.00909955
-0.0079837
-0.00553824
0.00140676
-0.00402765
-0.0267821
-0.0468647
-0.0233486
0.0146369
0.00791747
-0.00671262
-0.00946906
-0.011555
0.0078594
0.0136537
-0.0052326
-0.00579422
-0.00795928
0.00340428
0.0134757
0.00846316
0.00458276
0.0160381
0.0120005
0.0105917
0.0238721
0.0108347
0.0404057
0.0464526
0.0237949
0.0342222
0.0415157
0.0624709
0.0689163
0.0497292
0.0298473
0.0532767
0.0760938
0.0474348
0.0534817
0.0404458
0.030547
0.0509931
0.0459596
0.0435708
0.0548881
0.0659042
0.044543
0.0416654
0.0290847
0.0115844
0.0189399
0.0149411
0.0174129
0.029232
0.0333396
0.0307463
0.0295309
0.0458338
0.0478432
0.077777
0.100861
0.0743066
0.0702866
0.0499218
0.0492692
0.0483171
0.0459856
0.0471348
0.0375778
0.0580991
0.0444762
0.0184994
0.00899245
0.0138317
-0.0100421
-0.0336195
-0.0218222
-0.025509
-0.0264912
-0.0245515
-0.0244648
-0.00501991
0.0129597
-0.000402237
-0.0130485
-0.0129923
-0.00331528
0.00184116
0.00528853
0.0128099
-0.0148194
-0.0348104
-0.0383385
-0.0295246
-0.0174235
-0.01702
-0.0172304
-0.029912
-0.0268759
-0.0259056
-0.0147781
-0.00528573
-0.0212575
0.000423965
-0.00618769
-0.0271094
-0.0144264
-0.010282
-0.00886441
-0.0173886
-0.00907522
-0.00612782
-0.00171357
0.00605305
0.0031213
0.0105088
0.00529987
-0.0143636
-0.0232962
-0.0262857
-0.0121139
-0.0235781
-0.0195122
-0.0108019
-0.0323966
0.0016858
-0.00263796
-0.00351015
0.0108822
-0.0146742
-0.0073982
-0.012492
-0.0321212
-0.026399
-0.00937364
-0.00702358
-0.0202618
-0.0199444
-0.0228834
-0.0358662
-0.0396762
-0.053114
-0.0680172
-0.0882766
-0.101846
-0.094747
-0.0970648
-0.110943
-0.124568
-0.102152
-0.11091
-0.16504
-0.185709
-0.186027
-0.16804
-0.161724
-0.147988
-0.134687
-0.166632
-0.144614
-0.126416
-0.0968409
-0.0107265
0.0180373
0.0284939
0.0496155
0.0873087
0.130425
0.160772
0.210139
0.261309
0.304089
0.355322
0.397906
0.441803
0.480043
0.499718
0.510978
0.52401
0.528025
0.536237
0.53984
0.539989
0.533786
0.51427
0.496412
0.458117
0.401235
0.359573
0.338919
0.319062
0.299812
0.281017
0.285579
0.302464
0.295704
0.274392
0.266672
0.250726
0.217759
0.195973
0.165555
0.164654
0.159371
0.143748
0.164762
0.144331
0.107317
0.10654
0.0938013
0.0698967
0.0556387
0.033874
0.0204987
-0.0145324
-0.055202
-0.085432
-0.11809
-0.131001
-0.147965
-0.167779
-0.198254
-0.221234
-0.232612
-0.252339
-0.282429
-0.303961
-0.310064
-0.320911
-0.339698
-0.352628
-0.36589
-0.37764
-0.388988
-0.404985
-0.40962
-0.418821
-0.430459
-0.436365
-0.454344
-0.463194
-0.452726
-0.440781
-0.436244
-0.418062
-0.399241
-0.37685
-0.353015
-0.346905
-0.318716
-0.315653
-0.301909
-0.261648
-0.254982
-0.23697
-0.217607
-0.191822
-0.17449
-0.184441
-0.18648
-0.179403
-0.161014
-0.124147
-0.0986828
-0.0925585
-0.123779
-0.115415
-0.0735913
-0.0614772
-0.0462709
-0.0761818
-0.0634099
-0.0651238
-0.0884453
-0.0674376
-0.0710971
-0.060355
-0.0650841
-0.058111
-0.0362327
-0.0502362
-0.0629218
-0.0561207
-0.0497107
-0.0626292
-0.0588796
-0.0405303
-0.049708
-0.0575867
-0.0483707
-0.041273
-0.0484955
-0.05021
-0.0585409
-0.073553
-0.0692445
-0.0675467
-0.0603304
-0.0524193
-0.0586069
-0.0576778
-0.0424273
-0.0436819
-0.0523171
-0.0562696
-0.0605431
-0.0562074
-0.053392
-0.051273
-0.0510569
-0.05496
-0.0631878
-0.0659144
-0.0602651
-0.0603037
-0.0620272
-0.066366
-0.0651905
-0.0643231
-0.0675565
-0.0646734
-0.0664678
-0.0697653
-0.0634403
-0.0594276
-0.0767296
-0.0754169
-0.0716196
-0.0705149
-0.0363096
-0.0452201
-0.0714536
-0.0781876
-0.0735499
-0.0806065
-0.0873555
-0.0917276
-0.0705919
-0.0257672
-0.0740425
-0.107201
-0.0910368
-0.0913745
-0.0480848
-0.0440997
-0.078421
-0.0871208
-0.0783317
-0.0622325
-0.0650322
-0.0609507
-0.0571964
-0.0619461
-0.0623279
-0.0634082
-0.0611847
-0.0675875
-0.0744855
-0.0726991
-0.0700171
-0.065218
-0.0700913
-0.0724593
-0.0641933
-0.0602264
-0.0675607
-0.0652671
-0.0584782
-0.061375
-0.0561699
-0.040085
-0.0293306
-0.0300852
-0.0394788
-0.0545798
-0.065388
-0.0628331
-0.0527816
-0.0410492
-0.0564207
-0.0656715
-0.0445879
-0.0449879
-0.03574
-0.0267763
-0.0360997
-0.0357838
-0.0309652
-0.0208297
-0.0175945
-0.0324875
-0.0337253
-0.00149
-0.0129111
-0.0410557
-0.0329208
-0.0324311
-0.00944702
0.0122222
0.0137984
0.00651118
0.0135765
0.0271763
0.0304402
0.0294322
0.0201439
0.0394962
0.048348
0.0495088
0.0577571
0.0548625
0.049608
0.0538119
0.0653461
0.0541484
0.0582282
0.0776664
0.0816079
0.074246
0.0908033
0.105511
0.083586
0.0572059
0.0644953
0.096515
0.111256
0.107637
0.101512
0.0866882
0.0949396
0.115036
0.100761
0.106937
0.115436
0.107201
0.115243
0.105647
0.0965598
0.138176
0.161722
0.121431
0.114516
0.118154
0.0994686
0.113517
0.118286
0.13169
0.146584
0.129773
0.120031
0.113126
0.114842
0.130001
0.134479
0.132221
0.140242
0.153629
0.14753
0.131142
0.124686
0.124395
0.125481
0.123125
0.121449
0.119512
0.121297
0.12072
0.136632
0.154839
0.131117
0.10923
0.104962
0.109131
0.116615
0.129356
0.138372
0.126749
0.123638
0.109235
0.108766
0.115462
0.111542
0.105185
0.0985159
0.0935912
0.0933957
0.119844
0.116787
0.103027
0.102336
0.103479
0.0912378
0.0754299
0.0699289
0.0656764
0.0996893
0.112058
0.0919346
0.0785186
0.0760373
0.0737256
0.0738023
0.0854489
0.0827914
0.0738873
0.0717199
0.0832009
0.0801789
0.0754533
0.0767941
0.0719649
0.0697457
0.0599543
0.0474647
0.0302184
0.029232
0.0295954
0.0304629
0.0360381
0.0325536
0.0352476
0.0363409
0.0330152
0.0293948
0.0265344
0.0234145
0.0299428
0.0219635
0.0182723
0.0226365
0.0138184
0.0255985
0.0207969
0.0102909
0.0110265
0.0100249
0.00837992
0.014249
0.0218377
0.0133792
0.00811051
0.00524989
-0.00802451
-0.0145923
0.0175985
0.0175268
-0.00990226
-0.0368485
-0.0225189
0.0368561
0.0190426
0.00982328
0.0280195
0.0165107
0.0112453
0.0292458
0.0456082
0.0444913
0.0210996
-0.00933682
0.010417
0.00857974
-0.01467
-0.0062116
7.69132e-006
0.00996688
0.0175726
-0.000332474
-0.00895509
-0.000529575
-0.00329447
0.00653028
-0.0062355
-0.0157149
-0.00596117
4.88248e-005
-0.00958892
-0.0187154
-0.0131233
-0.0125767
-0.0138345
-0.0236749
-0.0309168
-0.0234371
-0.0221825
-0.0231755
-0.0155123
-0.0173536
-0.0179089
-0.0154164
-0.0121189
-0.00724063
-0.0039647
-0.018416
-0.0246488
-0.0156404
-0.0212927
-0.0174425
-0.0168773
-0.0193558
-0.014632
-0.013479
-0.0147114
-0.014204
-0.0199037
-0.0278358
-0.0151004
-0.0148627
-0.0133373
-0.00776771
-0.0124022
-0.0144698
-0.0161572
-0.0185908
-0.0178235
-0.0188296
-0.0235073
-0.0236885
-0.0311553
-0.0336611
-0.0289544
-0.0288037
-0.0320207
-0.0364788
-0.0361257
-0.0449889
-0.0311723
-0.0228463
-0.0262317
0.00142203
-0.000138766
-0.0381488
-0.0458008
-0.0352236
-0.0314691
-0.0295077
-0.0302318
-0.0244659
-0.0189834
-0.0175293
-0.018845
-0.0286947
-0.0188877
-0.0262969
-0.0418729
-0.0456483
-0.0367338
-0.0403074
-0.0515983
-0.0598643
-0.0503658
-0.0223389
-0.0299736
-0.00339533
0.000347245
-0.0317136
-0.025468
-0.0317372
-0.0162901
-0.0218673
-0.0362063
-0.0100676
-0.00525609
-0.0146429
-0.0261785
-0.0178965
-0.0149103
-0.0254023
-0.00860679
-0.0297867
-0.0442089
-0.0271166
-0.0247047
-0.0221016
-0.0273569
-0.0224362
-0.0202241
-0.0315353
-0.021133
-0.010751
-0.00812022
-0.0269961
-0.038183
-0.00155145
0.00194996
-0.0217137
-0.0246609
-0.0260801
-0.0272111
-0.00932211
-0.0106828
-0.0375402
-0.0300936
-0.00947313
-0.00372681
-0.0178179
-0.0386291
-0.0189717
-0.0306036
-0.0342542
-0.0246502
-0.0395426
-0.0157311
-0.00708311
-0.0105479
-0.019163
-0.0200495
-0.00440004
-0.00645932
-0.0125018
-0.00780443
-0.017619
-0.0171475
-0.0105219
-0.00879061
0.00408595
-0.00876868
0.00584083
0.0161634
-0.0135238
-0.0169436
-0.00384382
-0.0120218
-0.0143457
-0.0127675
-0.0303277
-0.0311518
-0.024437
-0.00343273
-0.00541709
-0.0156707
-0.00344906
0.0020442
0.00767643
0.013399
0.00725203
-0.0156399
-0.0230795
-0.0328149
-0.0285633
-0.00403903
-0.00298105
-0.00818094
0.00249697
-0.0048974
-0.0104057
-0.00115666
-0.0113538
-0.022256
-0.0231523
-0.0253326
-5.84451e-005
0.0034619
-0.0199071
-0.0142153
-0.0104194
-0.0143879
-0.00291351
0.0232671
0.0214472
0.0189197
0.0299488
0.0337453
0.0394448
0.034094
0.0356461
0.0469658
0.0418423
0.0510095
0.0861731
0.0840391
0.0423401
0.0258613
0.0504656
0.0851087
0.0968418
0.0788042
0.0762093
0.0613256
0.0484501
0.081881
0.076888
0.0486838
0.0474025
0.0460884
0.0456918
0.053073
0.0500155
0.0342466
0.0144635
0.0203646
0.0446797
0.054197
0.0627822
0.0663912
0.0650751
0.0689754
0.0743107
0.0783555
0.0734131
0.0557853
0.0477432
0.0795026
0.0942028
0.0668906
0.059514
0.0649298
0.0619173
0.0631997
0.0474702
0.0344215
0.0397776
0.0413207
0.0349123
0.014506
-0.00884787
-0.00900604
0.00625544
0.00221869
0.00719521
0.0224959
0.00239993
-0.00687345
-0.000185593
-0.0154915
-0.0188454
-0.0113948
-0.00336535
-0.0160406
-0.0227341
-0.0177585
-0.0193938
-0.0248608
-0.0292995
-0.0417548
-0.0481724
-0.0314028
-0.0352154
-0.0133223
0.0105945
-0.00114942
0.0107272
0.0134448
-0.00185921
-0.0101446
-0.0124712
0.00300804
0.00606134
-0.00760008
0.000706171
0.00766598
-0.0010009
0.0124863
0.0159915
0.00847485
0.0219961
0.00770947
-0.0131524
-0.0103007
0.00758286
-0.00218551
-0.0323251
0.00138322
0.0120773
-0.0212024
-0.0245182
-0.0210269
-0.0149638
-0.00962041
-0.0103163
-0.0113681
-0.0130583
-0.00760718
-0.0121508
-0.0137281
-0.0162771
-0.0136398
-0.00557806
-0.0217971
-0.0309752
-0.0327941
-0.0339702
-0.0382823
-0.049594
-0.0598678
-0.072168
-0.0996551
-0.11457
-0.10921
-0.134899
-0.170957
-0.17367
-0.161257
-0.172851
-0.176489
-0.185102
-0.19053
-0.189532
-0.201808
-0.190035
-0.164892
-0.136093
-0.127417
-0.104731
-0.0730005
-0.0382932
0.0112265
0.0303139
0.0536666
0.103955
0.128858
0.147087
0.219424
0.291739
0.345002
0.393288
0.414764
0.434676
0.449325
0.457039
0.493138
0.507908
0.515567
0.55025
0.531989
0.509711
0.529247
0.516349
0.467713
0.410004
0.366897
0.314103
0.302403
0.32767
0.339881
0.360117
0.351552
0.347437
0.327075
0.29879
0.296899
0.296677
0.302338
0.287004
0.258701
0.222351
0.178783
0.152749
0.153952
0.146078
0.121816
0.104898
0.0841185
0.064357
0.0665895
0.0588908
0.00642411
-0.0585759
-0.103825
-0.128016
-0.144844
-0.145042
-0.153402
-0.195803
-0.232215
-0.254709
-0.276443
-0.288647
-0.293603
-0.311616
-0.321985
-0.337975
-0.361787
-0.364546
-0.378282
-0.40193
-0.407338
-0.411279
-0.411475
-0.420623
-0.447429
-0.460632
-0.475031
-0.460502
-0.443013
-0.463623
-0.474483
-0.457814
-0.41889
-0.401003
-0.369448
-0.331482
-0.332308
-0.323053
-0.296755
-0.285359
-0.263723
-0.230629
-0.225809
-0.213968
-0.201813
-0.193085
-0.166576
-0.143157
-0.135785
-0.138511
-0.129477
-0.125894
-0.11703
-0.0841783
-0.0806292
-0.106646
-0.0914394
-0.0791411
-0.089796
-0.0883567
-0.0746879
-0.0675787
-0.0727644
-0.0609524
-0.0508497
-0.0341915
-0.0327674
-0.0374428
-0.0451717
-0.0490004
-0.0530628
-0.0535668
-0.0427742
-0.0499749
-0.0534596
-0.0514915
-0.0232792
-0.00495672
-0.0385728
-0.0840883
-0.0813776
-0.0842379
-0.0954105
-0.0596059
-0.0545313
-0.0629213
-0.0475639
-0.04332
-0.0491374
-0.0430562
-0.0412041
-0.0667849
-0.0700579
-0.0803124
-0.0928385
-0.0678989
-0.0517022
-0.053384
-0.0549954
-0.0514974
-0.0517642
-0.043596
-0.0387382
-0.0729075
-0.0888203
-0.0802179
-0.0758905
-0.0576987
-0.0595874
-0.0685918
-0.0748344
-0.0805116
-0.0648741
-0.0552022
-0.0407789
-0.0478633
-0.0726662
-0.0773293
-0.0779098
-0.0663744
-0.0636033
-0.0624026
-0.0845239
-0.0886885
-0.0516126
-0.0450345
-0.050743
-0.0565979
-0.0735437
-0.0776135
-0.0709255
-0.0646708
-0.0500951
-0.0544749
-0.0710921
-0.0672056
-0.0630247
-0.0596892
-0.0542566
-0.0476959
-0.0458913
-0.0416541
-0.0307401
-0.0678754
-0.0837831
-0.0702085
-0.0669422
-0.0558424
-0.0648486
-0.0629884
-0.0513732
-0.0571878
-0.054673
-0.039101
-0.0347491
-0.0428734
-0.0476843
-0.0423253
-0.0528585
-0.0612594
-0.0484188
-0.0311524
-0.0332196
-0.0393486
-0.0412624
-0.0557055
-0.0444684
-0.0254069
-0.0214569
-0.0206417
-0.0220696
-0.0259232
-0.0284409
0.00910678
0.0174447
-0.00368306
0.0285123
0.0248866
0.0153753
-0.00200108
-0.0241382
0.012144
0.0180841
0.00595399
0.00103085
0.0135721
0.0207904
-0.000167966
0.00976164
0.0395584
0.0511179
0.0392598
0.0387454
0.0463023
0.0396514
0.0345334
0.0477349
0.05411
0.0535939
0.0562085
0.0600612
0.0683341
0.0662663
0.0581299
0.0592032
0.0717447
0.0729678
0.0680185
0.0629613
0.0687735
0.0763476
0.0735019
0.0779973
0.0895617
0.0899164
0.0868026
0.0930072
0.0903841
0.101868
0.107482
0.113335
0.125608
0.129542
0.120408
0.0994854
0.114031
0.108257
0.10731
0.144256
0.139076
0.115662
0.11983
0.118342
0.115925
0.131299
0.142205
0.126432
0.119831
0.141336
0.13097
0.117838
0.118121
0.122059
0.137925
0.121
0.107544
0.117769
0.128825
0.140779
0.160612
0.146217
0.109411
0.122951
0.136563
0.122967
0.1239
0.13615
0.124567
0.125087
0.131731
0.116607
0.109897
0.114842
0.119717
0.104804
0.0963625
0.101608
0.111689
0.114672
0.113536
0.114173
0.0913976
0.0989682
0.0896087
0.0810365
0.10599
0.101257
0.0886885
0.0782196
0.0818724
0.0967567
0.105058
0.0900201
0.0889164
0.0810288
0.0566171
0.0588943
0.0620073
0.0530217
0.0549147
0.0565781
0.0528285
0.0594249
0.0480926
0.0475496
0.0525346
0.0168321
0.00529281
0.0508511
0.0645324
0.0434469
0.0297777
0.0117645
0.00768121
0.0148095
0.0184116
0.0197038
0.0268348
0.0508723
0.0457951
-0.000506112
-0.0112188
0.00441362
0.0131162
0.0286078
0.0216277
0.0199606
0.0204582
0.0100541
0.0177701
0.0177147
0.015072
0.0110833
0.0170242
0.0271779
0.00280634
-0.0188759
-0.0147216
-0.00466364
0.0132783
0.00299812
-0.00168732
-0.00701961
-0.0172749
0.0152641
0.00833547
-0.0132779
-0.00672735
-0.00208142
-0.00531975
-0.0113358
-0.009947
-0.00391188
4.62239e-005
-0.0197888
-0.0231536
-0.00783003
-0.00866579
-0.00359075
0.00537635
-0.00787054
0.0144856
0.0252037
6.54391e-006
-0.00439284
-0.00826158
-0.0108202
-0.0102215
-0.0245356
-0.0497439
-0.0297397
0.0056635
0.00471226
-0.00431351
0.00487258
0.00453659
-0.0151027
-0.0168955
-0.00177383
0.00824184
4.34822e-005
-0.00955479
-0.0157978
-0.0159646
-0.00334051
-0.00718985
-0.0077305
-0.00311252
-0.00840327
-0.0155813
-0.00253814
-0.0120884
-0.0419898
-0.00396526
0.0152716
-0.00201349
-0.0386046
-0.0483548
-0.0111973
-0.00115178
-0.00932506
-0.0249021
-0.0151261
-0.0072737
-0.0196285
-0.0234544
-0.027969
-0.0253218
-0.0175795
-0.0337201
-0.0236355
-0.0151408
-0.0229934
-0.020917
-0.0116286
0.000134855
-0.0134106
-0.0271178
-0.0259219
-0.0138453
-0.0209961
-0.027558
-0.016772
-0.0179124
-0.01726
-0.0120752
-0.00457185
-0.00389689
-0.0171166
-0.01621
-0.0110704
-0.0115154
-0.00930566
-0.0111683
-0.0238237
-0.0310132
-0.0385236
-0.0412077
-0.0359985
-0.0339156
-6.28338e-005
0.0113816
-0.00281926
6.18277e-005
0.000744056
0.0139668
0.0195146
-0.00376245
-0.00993474
-0.0149847
0.00319251
0.0147786
-0.0159873
-0.0118328
-0.0224768
-0.0156572
0.0208441
-0.0068209
-0.0265838
-0.0214651
-0.0225703
-0.0230805
-0.0152348
-0.0103069
-0.0175787
-0.0253135
-0.013729
-0.0159758
-0.0201235
-0.00915324
-0.0169597
-0.00936154
-0.00111863
-0.00195572
-0.00258996
-0.00375832
0.00475703
-0.00689272
-0.0186386
-0.0164999
-0.00458141
0.00893708
0.0118171
0.0097842
0.00555487
0.0108646
0.00949416
0.00729053
0.0241824
0.0151873
-0.00259183
-0.0129757
-0.0187255
-0.00656548
-0.00320961
-0.0083909
-0.0168879
-0.022546
-0.0152921
-0.00214114
-0.00519563
-0.00363645
0.0162955
0.0113229
-0.00884245
-0.00347112
0.00421236
-0.0179494
-0.0170321
0.0109802
-0.00680746
-0.041213
-0.0289944
-0.00486995
0.0104532
0.0252487
0.00874336
0.00409416
0.00137426
0.0015662
0.0225639
0.0141824
0.00417507
-0.00174252
0.00813686
0.0185411
0.00424415
0.003088
0.0129989
0.00999529
-0.00681555
-0.0042474
0.011948
0.0130565
0.0153722
0.0261693
0.0106744
-0.0409569
-0.0186541
0.0475657
0.0215974
0.0312535
0.0362845
0.0284039
0.0613165
0.0597478
0.0764697
0.0713228
0.0912325
0.0922168
0.0793836
0.0839207
0.0560776
0.0631414
0.0664101
0.060163
0.0766326
0.0859826
0.0642905
0.0525382
0.053616
0.054333
0.0474358
0.0746326
0.0986231
0.0681256
0.0319025
0.0157853
0.0326945
0.0326476
0.0467564
0.0502157
0.0462841
0.0552589
0.0614475
0.0711371
0.0685661
0.0739005
0.0582174
0.050497
0.0596254
0.0484058
0.0345768
0.0418381
0.038881
0.0344177
0.0242092
0.0150886
0.00697846
-0.0181025
0.00496031
0.00436659
-0.0206198
-0.0256976
-0.00555513
0.0200996
-0.010492
-0.0341645
-0.0368433
-0.0195493
-0.0123978
-0.0105884
-0.011386
-0.016095
-0.00102858
-0.0174785
-0.0266871
-0.0218228
-0.00896234
-0.00308355
-0.0190687
-0.00971604
-0.0207583
-0.0398899
-0.0347962
-0.0231833
-0.0178067
-0.0314973
-0.0381781
-0.0248707
-0.0186928
-0.00884748
-0.00260406
-0.012272
-0.0171709
-0.0255988
-0.0288024
-0.0199523
-0.0131259
-0.0213005
-0.029356
-0.0170855
-0.018215
-0.0244311
-0.0204115
-0.0248566
-0.0185187
-0.0142263
-0.0239015
-0.0155681
-0.0253489
-0.0244542
-0.0221609
-0.0277858
-0.020654
-0.0170676
-0.0292759
-0.0314514
-0.0136716
-0.0189111
-0.0250454
-0.0278624
-0.0300828
-0.0283868
-0.0244459
-0.0279549
-0.0376624
-0.0473958
-0.0480777
-0.0527333
-0.0624884
-0.0625578
-0.0832239
-0.09981
-0.110648
-0.127045
-0.131255
-0.14545
-0.16171
-0.171007
-0.174213
-0.171111
-0.190413
-0.207796
-0.186927
-0.180494
-0.184242
-0.161998
-0.142683
-0.104323
-0.0810489
-0.0590804
-0.0197073
0.00574005
0.0359226
0.0695262
0.108293
0.151046
0.179709
0.216311
0.264986
0.333959
0.386528
0.414029
0.437803
0.457164
0.487371
0.499597
0.512919
0.532305
0.510617
0.502626
0.507036
0.493512
0.46571
0.424312
0.39406
0.374779
0.349394
0.326942
0.319562
0.317485
0.312013
0.315484
0.322242
0.311601
0.296817
0.255055
0.228382
0.233758
0.217039
0.198994
0.169327
0.150701
0.143781
0.119258
0.101886
0.0904999
0.0710365
0.0475373
0.0301451
0.00708977
-0.0243349
-0.0668004
-0.104976
-0.123559
-0.138305
-0.158052
-0.170736
-0.173396
-0.199172
-0.228295
-0.246055
-0.277782
-0.285807
-0.29143
-0.318893
-0.325355
-0.348879
-0.35442
-0.349836
-0.374899
-0.386318
-0.399767
-0.41192
-0.42648
-0.435206
-0.422943
-0.46063
-0.448311
-0.411128
-0.445306
-0.437136
-0.42394
-0.431046
-0.428748
-0.413287
-0.399816
-0.395394
-0.377977
-0.346421
-0.3195
-0.330923
-0.304371
-0.259518
-0.241071
-0.217793
-0.210532
-0.201233
-0.201943
-0.191806
-0.145048
-0.123954
-0.124842
-0.142034
-0.148821
-0.120437
-0.086029
-0.0866506
-0.0832542
-0.0746974
-0.0997563
-0.0841478
-0.0555556
-0.0566613
-0.0591782
-0.0558786
-0.0716156
-0.0773376
-0.0660921
-0.0710204
-0.0663447
-0.0553456
-0.0543347
-0.0596247
-0.0574988
-0.0711827
-0.064823
-0.0474713
-0.0580807
-0.0445107
-0.0605414
-0.0708954
-0.0802646
-0.0733396
-0.042839
-0.0535376
-0.04129
-0.0600445
-0.062848
-0.0468398
-0.0502379
-0.0473183
-0.0643885
-0.0607567
-0.0647012
-0.0864438
-0.0671275
-0.0578019
-0.0444188
-0.0208379
-0.0398414
-0.0721572
-0.0914849
-0.0645219
-0.0759932
-0.0786801
-0.0454406
-0.0502225
-0.0540707
-0.0551223
-0.0595921
-0.0587518
-0.0549024
-0.070346
-0.0663558
-0.0621484
-0.0548632
-0.0225484
-0.032157
-0.0615539
-0.0725286
-0.0738142
-0.0661124
-0.0551235
-0.0665762
-0.0762556
-0.0600222
-0.039825
-0.0497074
-0.0408036
-0.031325
-0.0645395
-0.0607461
-0.0472432
-0.0522996
-0.0581294
-0.0618714
-0.0595743
-0.0631925
-0.0465904
-0.0405557
-0.0418209
-0.0470905
-0.0510694
-0.0344912
-0.0451439
-0.0458921
-0.0366891
-0.0455814
-0.0547044
-0.0552691
-0.0315398
-0.0278082
-0.0333663
-0.0304783
-0.0293535
-0.0161261
-0.0178417
-0.0274546
-0.0248317
-0.0287648
-0.0249917
-0.0142213
-0.0141621
-0.0135519
-0.00818273
-0.00892124
-0.00772179
-0.00163059
-0.00378104
0.00361929
0.00430924
-5.64458e-007
-0.00259952
-0.00874839
0.020347
0.0335565
0.0038357
-0.00777053
0.0068698
0.00896373
0.00977171
0.0165817
0.0206812
0.0243291
0.0307302
0.0240148
0.0382266
0.0473186
0.0211573
0.0335351
0.045193
0.0448453
0.0512072
0.0480225
0.0520887
0.0622776
0.0525469
0.038944
0.0446013
0.0347244
0.0335712
0.0464267
0.059576
0.0842755
0.0797271
0.0770575
0.069306
0.0894219
0.0982705
0.0716444
0.0892842
0.112906
0.122229
0.110002
0.104026
0.104177
0.104416
0.100795
0.106452
0.129594
0.126481
0.121398
0.122623
0.126405
0.12794
0.121347
0.12366
0.129823
0.125699
0.129079
0.135705
0.137297
0.150577
0.155299
0.152273
0.148382
0.138591
0.135959
0.140623
0.150793
0.153727
0.164707
0.164009
0.136877
0.140497
0.125983
0.111362
0.125576
0.127483
0.134877
0.139501
0.148079
0.140337
0.134033
0.13698
0.136065
0.141261
0.137629
0.138309
0.13251
0.130488
0.155522
0.145885
0.110818
0.107502
0.110048
0.109482
0.115743
0.116691
0.123117
0.124766
0.12836
0.123628
0.118329
0.119279
0.103367
0.0985663
0.100939
0.103627
0.102844
0.0998462
0.102913
0.100317
0.0942978
0.0970394
0.104651
0.093155
0.0754877
0.0695021
0.0819853
0.0686796
0.038305
0.0345882
0.0522912
0.0712347
0.076315
0.0525115
0.0508896
0.0735957
0.0578433
0.0508897
0.0380114
0.0504781
0.0605268
0.0363373
0.0350137
0.0515758
0.046958
0.0500136
0.0615306
0.0162508
0.0208951
0.0601941
0.039914
0.0298762
0.0449766
0.0491968
0.0366045
0.0213465
0.0206345
0.0207258
0.00389722
-0.0015825
0.00352181
0.00738907
0.00312363
-0.0012555
-0.00581635
-0.00470698
0.00185928
-0.00737565
-0.000689563
0.0146481
0.00240231
-0.00560581
0.00751988
-0.00923892
0.00518635
0.0239455
-0.00574619
-0.034631
-0.074433
-0.0438827
0.0202598
0.00817794
-0.0290239
-0.0323299
-0.0198109
-0.0136173
-0.00396565
-0.0111181
-0.0323574
-0.0399587
-0.0331608
-0.0151424
-0.023005
-0.0417644
-0.0193483
-0.0136015
-0.0273031
-0.0381886
-0.0329749
-0.0153869
-0.0191856
-0.0181923
-0.0283063
-0.0375152
-0.0488954
-0.0316042
-0.0178635
-0.0419399
-0.034119
-0.0386763
-0.05585
-0.0468182
-0.0226792
-0.0214427
-0.0330304
-0.0432839
-0.0299788
-0.00584553
-0.0195969
-0.0219581
-0.00969237
-0.0346241
-0.0436572
-0.0257832
-0.0250809
-0.0367109
-0.0529002
-0.0439187
-0.0160517
-0.0295722
-0.0387169
-0.0306616
-0.0315025
-0.0292479
-0.014817
-0.0170476
-0.0367133
-0.0315455
-0.0222578
-0.0175747
-0.0172592
-0.0171364
-0.0211106
-0.0141741
-0.0204085
-0.0449772
-0.0241088
-0.0230733
-0.0371573
-0.0346359
-0.0347455
-0.0316597
-0.020473
-0.0111909
-0.0157308
-0.0129295
-0.0205597
-0.00535139
-0.00501798
-0.0302858
-0.0209208
-0.0277498
-0.0456785
-0.0307006
-0.0108967
-0.0234275
-0.0425207
-0.0364467
-0.0314914
-0.0279282
-0.0309925
-0.0338584
-0.0326215
-0.0312895
-0.0137807
-0.00993254
-0.0235183
-0.0192696
-0.0199012
-0.0181393
-0.0247483
-0.0285543
-0.0244615
-0.0254612
-0.0136328
-0.0231367
-0.0211986
-0.0120872
-0.0170875
-0.00647391
-0.00548278
-0.01829
-0.0209941
-0.0186054
-0.018045
-0.0171529
-0.0157033
-0.00842678
-0.00403662
-0.000256936
-0.00185001
-0.0126398
-0.0115288
-0.00550715
-0.00965334
-0.0121275
-0.0191554
-0.0200064
-0.0139667
-0.0343114
-0.0252786
-0.00204402
-0.0107046
-0.0062707
-0.0216647
-0.0167281
0.0227641
-0.00591888
-0.021493
0.000315021
-0.0112573
0.00596698
0.0160876
0.00411676
0.00597692
0.00750981
0.000491686
0.000654985
0.00671498
-0.0146029
-0.0155365
-0.00226266
-0.00687972
-0.0143993
-0.00774487
0.0022414
0.0167833
0.0181477
0.00261759
-0.00953555
-0.0220777
-0.0288341
-0.0227064
0.00031907
0.0021691
-0.00831079
-0.0133413
-0.0101865
0.0148727
0.00156517
-0.0173454
-0.00103684
0.00939102
-0.0170759
-0.0243657
0.006675
-0.000733629
0.00367175
0.00617214
-0.0149613
-0.020494
-0.0182497
-0.0141274
-0.0151113
-0.0112728
-0.0087638
-0.00880113
0.00435411
0.0174227
0.0161339
0.0042509
0.00359421
0.0140606
0.015633
0.0163818
0.0114572
0.0330758
0.0525
0.0430107
0.0598798
0.0663442
0.0625824
0.0676968
0.0707042
0.0715343
0.0700364
0.0689941
0.0651466
0.0802149
0.0659287
0.0540517
0.0474051
0.033886
0.0474774
0.0542504
0.0563564
0.0510112
0.0494738
0.049022
0.0389243
0.033414
0.0296666
0.0327833
0.0427809
0.0445906
0.0440639
0.0559874
0.0581044
0.060139
0.0588235
0.0529242
0.057265
0.0297438
0.0163422
0.0341289
0.0422539
0.0569325
0.057423
0.0630017
0.0189341
-0.0225512
0.0147178
0.0208423
0.0108397
0.00664053
0.0110967
0.0209966
0.00308513
-0.0209125
-0.00926279
0.00280432
0.0291172
0.0275781
-0.0238295
-0.0100389
-0.0209034
-0.031212
-0.0117098
-0.0111228
0.00881515
0.00633518
-0.0123898
-0.0302625
-0.0312693
-0.0204802
-0.0130423
-0.0041663
-0.018106
-0.0221342
-0.0195149
-0.0234771
-0.0271926
-0.0277596
-0.0351928
-0.0314218
-0.00729766
-0.00560735
-0.0120965
-0.0064943
-0.0145392
-0.0270051
-0.0447237
-0.0375998
-0.00961929
-0.0378515
-0.0584451
-0.0536112
-0.035601
-0.039682
-0.038113
-0.0101183
-0.0178654
-0.0174502
-0.0188875
-0.0151089
-0.0179695
-0.0172623
-0.0157384
-0.0171313
-0.0111826
-0.0106676
-0.00941704
-0.0413347
-0.034406
-0.0196982
-0.0143528
0.00142584
-0.000608652
0.000278236
-0.0351725
-0.0771889
-0.0749434
-0.050534
-0.0719755
-0.0932011
-0.0740675
-0.088368
-0.132855
-0.150263
-0.148337
-0.138849
-0.156628
-0.187577
-0.156679
-0.147
-0.18368
-0.213928
-0.206994
-0.153144
-0.114631
-0.125679
-0.108457
-0.0580656
-0.0405208
0.0032423
0.063365
0.0670506
0.112543
0.185106
0.189995
0.224434
0.285591
0.329567
0.380382
0.417975
0.451209
0.477881
0.494749
0.495548
0.499023
0.512947
0.509151
0.516536
0.526083
0.511856
0.482994
0.442694
0.384197
0.352763
0.337644
0.300066
0.281201
0.28715
0.304939
0.299508
0.302724
0.298383
0.269242
0.24403
0.221485
0.232377
0.230532
0.218849
0.196307
0.14897
0.119977
0.119536
0.119901
0.0843464
0.0861378
0.0745086
0.0246348
0.0136169
0.00847177
-0.0238696
-0.0545574
-0.0898076
-0.114881
-0.110054
-0.151596
-0.20374
-0.234665
-0.244468
-0.253161
-0.265665
-0.273823
-0.295413
-0.304169
-0.31781
-0.330066
-0.336702
-0.350549
-0.375511
-0.395586
-0.417855
-0.456482
-0.430694
-0.405756
-0.434948
-0.460541
-0.460768
-0.436797
-0.439718
-0.422531
-0.406151
-0.414413
-0.399089
-0.373911
-0.346594
-0.334868
-0.320503
-0.307336
-0.301278
-0.280333
-0.248588
-0.218211
-0.223431
-0.219519
-0.19276
-0.181422
-0.168732
-0.153854
-0.133872
-0.12178
-0.110487
-0.103821
-0.0845508
-0.0814052
-0.106102
-0.098375
-0.0879998
-0.0888143
-0.0957371
-0.0827745
-0.0720194
-0.080643
-0.0788784
-0.0759975
-0.0542829
-0.0530011
-0.0663771
-0.0545724
-0.0626677
-0.0756558
-0.0654421
-0.0648525
-0.0646514
-0.0395644
-0.0253051
-0.0296042
-0.0332373
-0.0470464
-0.0599551
-0.0499753
-0.0462055
-0.0358217
-0.0380605
-0.061197
-0.0495169
-0.0732879
-0.0817337
-0.0430111
-0.0421931
-0.056265
-0.0551264
-0.0495985
-0.0534427
-0.0523841
-0.0571386
-0.0574406
-0.0450688
-0.0518683
-0.0687663
-0.0657795
-0.0580106
-0.0526389
-0.0399027
-0.0430764
-0.0474441
-0.0542717
-0.0507798
-0.0581222
-0.0523707
-0.0555079
-0.0654295
-0.0259532
-0.0498373
-0.0528057
-0.0305745
-0.0428786
-0.0504995
-0.0482867
-0.0661715
-0.0631742
-0.0374011
-0.0540338
-0.0683142
-0.0885198
-0.084935
-0.0658223
-0.0503965
-0.0398051
-0.0421142
-0.0803036
-0.0872681
-0.0418246
-0.0577303
-0.0587095
-0.04548
-0.0457796
-0.0403926
-0.0581719
-0.0720528
-0.0640589
-0.0642988
-0.0679558
-0.0602708
-0.0535174
-0.0529758
-0.0569062
-0.0305219
-0.0189683
-0.0553107
-0.0705289
-0.0585164
-0.0440894
-0.0420065
-0.0399927
-0.0427673
-0.0470703
-0.0286879
-0.0394732
-0.0553622
-0.0423789
-0.0416319
-0.0473047
-0.0416382
-0.0299058
-0.0263873
-0.0233415
-0.0229818
-0.0234542
-0.035824
-0.0460687
-0.0240799
-0.00367224
-0.00160309
-0.0105981
-0.0123775
-0.00468244
-0.00630036
-0.00808625
-0.0169771
-0.0129976
0.00974318
0.0200624
0.0257203
0.0264431
0.01895
0.0189806
0.0253218
0.0388284
0.0424375
0.0401733
0.0431456
0.0355388
0.042594
0.0565862
0.051797
0.0444859
0.0528653
0.0680809
0.0731967
0.0701882
0.0709441
0.0782782
0.0629474
0.0466747
0.0701777
0.105198
0.0985258
0.0720157
0.0606037
0.0873151
0.136264
0.10964
0.087684
0.0996712
0.114883
0.134579
0.141973
0.148208
0.111346
0.0953552
0.108122
0.129459
0.158126
0.148848
0.122346
0.123359
0.132675
0.132152
0.12973
0.121437
0.129386
0.140764
0.143816
0.139818
0.132049
0.126768
0.126183
0.125435
0.122585
0.110603
0.116377
0.125718
0.111386
0.129105
0.130597
0.135606
0.135922
0.141403
0.13499
0.114709
0.127671
0.121063
0.129128
0.13514
0.135381
0.124107
0.11853
0.13179
0.116948
0.116976
0.113763
0.11312
0.111805
0.104544
0.125057
0.132088
0.115426
0.109927
0.103531
0.0792633
0.107235
0.135635
0.108708
0.116729
0.119978
0.103714
0.109145
0.100416
0.0925855
0.0856266
0.0904269
0.101801
0.0915061
0.101269
0.0998097
0.0878695
0.0962368
0.0937681
0.0924014
0.0901626
0.0711622
0.0645852
0.0786736
0.0767035
0.0709566
0.0686927
0.0661243
0.0543964
0.0445714
0.0686243
0.0604453
0.0498486
0.0355906
0.0443946
0.0669795
0.0420853
0.00449664
0.00106514
0.0407274
0.0355107
0.0235272
0.0339631
0.0280624
0.0201015
0.0233629
0.00810742
0.0275491
0.0438352
0.01103
0.00610709
0.0149546
0.0373871
0.022162
0.0320023
0.0176245
-0.0242348
-0.0117925
-0.0291953
-0.0205067
0.000300199
0.0123395
0.00780022
-0.0220738
-0.0120066
0.00028472
0.00706222
0.00153964
-0.0321392
-0.0179134
-0.00180884
-0.0209369
-0.0104844
0.00830569
0.0141587
0.000792855
-0.00605288
-0.000592394
-0.00297088
0.00374893
0.00159279
-0.0103281
-0.00282776
0.00433728
-0.0155568
-0.0192287
-0.00241826
-0.00191132
-0.00356216
-0.0113081
-0.00417479
-0.0192741
-0.0247931
0.00202496
-0.00209468
-0.00943371
-0.012253
-0.0117659
-0.0151179
-0.031372
-0.0425037
-0.0194014
-0.00587638
-0.0256841
-0.0255483
0.000813345
-0.00533774
-0.0237892
-0.013398
-0.0201027
-0.0289308
-0.0239954
-0.0234837
-0.0236391
-0.0167372
-0.0090586
-0.0178621
-0.0303597
-0.0236958
-0.0189311
-0.0130382
-0.0209041
-0.0673431
-0.0541141
-0.0119403
-0.000537367
-0.0216451
-0.022053
0.0173818
-0.00427941
-0.0250661
-0.0350946
-0.0555549
-0.0456917
-0.0327798
-0.0300972
-0.0288997
-0.0353955
-0.0177245
-0.0149442
-0.0430256
-0.0328564
-0.0302499
-0.026964
-0.0157252
-0.0172555
-0.0163003
-0.0156525
-0.0221736
-0.0328064
-0.0245807
-0.011609
-0.00107577
-0.0112207
-0.0173155
-0.00863607
-0.0134356
-0.01892
-0.0172281
-0.0174176
-0.0174594
-0.0222413
-0.0235785
-0.018232
-0.0239317
-0.0164032
-0.0193948
-0.0157018
-0.0181867
-0.0317932
-0.0115507
-0.00657063
-0.0280368
-0.0271881
-0.0332935
-0.0256255
0.0135676
0.00508485
-0.01421
-0.0183748
-0.027382
-0.0271208
-0.0394088
-0.0280098
-0.0156558
-0.0200745
-0.00701629
-0.00427837
-0.0177252
-0.0283023
-0.0220401
-0.0170503
-0.0155155
-0.0206715
-0.0307847
-0.0271251
-0.0119395
-0.00742686
-0.0147206
-0.0178757
-0.0208626
-0.0135701
-0.013816
-0.0243659
-0.0239563
-0.0343198
-0.0322113
-0.00843125
-0.0138453
-0.0143989
-0.0211224
-0.0301276
-0.0125963
-0.0117615
-0.0168861
-0.0352377
-0.0330614
-0.0205548
-0.024849
-0.0249969
-0.0249675
0.0203515
0.0271434
-0.04836
-0.0899026
-0.0532228
-0.0130761
-0.0172626
-0.0406504
-0.0411873
-0.0289033
-0.0369084
-0.00938172
-0.00755381
-0.0326858
-0.038044
-0.0468722
-0.0333672
-0.00565853
-0.00879744
-0.0237533
-0.0154164
-0.0166072
-0.0170942
-0.0136173
-0.0249132
-0.0317411
-0.0339063
-0.0502787
-0.0438059
-0.0305171
-0.0245205
-0.0179936
-0.0171662
0.00670257
0.00934985
-0.00846676
-0.0109456
-0.00221995
-0.00734451
-0.0152913
-0.017952
-0.0161478
-0.0056468
-0.0141868
-0.0255023
0.00365115
0.0294738
-0.00089996
-0.0134171
-0.00310827
0.000915902
0.0104752
0.0123365
0.0162368
0.0159087
0.022107
0.0286327
0.0333529
0.0362131
0.0382431
0.055554
0.0623283
0.0598006
0.0522344
0.0578971
0.0680348
0.0568469
0.0364665
0.0559473
0.0942615
0.0773
0.0638805
0.0697666
0.0476923
0.0243863
0.0396003
0.0581344
0.0508561
0.0187102
-0.0192754
0.0270108
0.053755
0.0401966
0.0406026
0.0242427
0.0393636
0.0511659
0.0597838
0.0692712
0.0565961
0.0616433
0.0752276
0.062111
0.0590255
0.0797004
0.0808896
0.066394
0.0540803
0.0478957
0.0448734
0.0281288
0.018848
0.0382706
0.0416666
0.0233078
0.0124406
0.00726267
-0.00709572
-0.0125852
-0.0232418
-0.0221831
-0.0145967
0.0102791
0.0221777
-0.0241716
-0.0250175
-0.00155904
-0.000925221
-0.0211653
-0.033244
-0.0250435
-0.037374
-0.0199934
-0.0166302
-0.0300117
-0.00789023
-0.00506691
-0.000411991
-0.0198786
-0.0395077
-0.0364228
-0.0278164
-0.0129316
-0.0230391
-0.0324119
-0.0402975
-0.0448929
-0.0183246
0.00136421
0.000216756
-0.00864333
-0.0140234
-0.00467964
-0.00334054
-0.00373435
-0.0026158
0.00221012
-0.0141313
-0.0345976
-0.0202319
-0.0141576
0.00243305
0.00929723
-0.0278363
-0.0282409
-0.0141622
-0.0107943
-0.00826201
-0.00460863
-0.00879186
-0.0266883
-0.0261051
-0.0187979
-0.00449436
-0.0129219
-0.0118349
-0.00203846
-0.0364074
-0.0418997
-0.0365587
-0.0455085
-0.0469426
-0.0541056
-0.0492682
-0.0567012
-0.0636495
-0.0963085
-0.114805
-0.112184
-0.116403
-0.119335
-0.140786
-0.161512
-0.178242
-0.176704
-0.187652
-0.184889
-0.182291
-0.186811
-0.174492
-0.17246
-0.152908
-0.134082
-0.120256
-0.0767034
-0.0416704
-0.0153538
0.0261187
0.0427012
0.100434
0.147443
0.171922
0.233117
0.287304
0.32676
0.358732
0.396419
0.44195
0.487373
0.506645
0.513643
0.52517
0.524977
0.519789
0.516329
0.533348
0.532649
0.509105
0.47467
0.412385
0.37837
0.352821
0.322987
0.314145
0.308573
0.299526
0.294203
0.299734
0.300164
0.278449
0.263456
0.250983
0.235774
0.238548
0.233025
0.211955
0.182139
0.155453
0.143859
0.146409
0.136242
0.110569
0.101648
0.0887631
0.0441954
0.010192
-0.020056
-0.0564316
-0.0499037
-0.0655294
-0.120451
-0.156883
-0.179088
-0.209351
-0.218952
-0.214136
-0.244089
-0.267925
-0.293672
-0.324265
-0.332558
-0.342334
-0.345329
-0.344255
-0.363831
-0.395814
-0.41502
-0.43434
-0.432753
-0.421327
-0.455213
-0.501632
-0.488852
-0.474159
-0.456829
-0.443101
-0.441158
-0.404105
-0.40596
-0.406652
-0.38203
-0.329873
-0.275913
-0.283864
-0.266451
-0.268437
-0.277643
-0.246969
-0.222396
-0.192996
-0.172918
-0.160383
-0.154652
-0.14501
-0.140731
-0.123054
-0.0981577
-0.103146
-0.0990351
-0.0847552
-0.0861536
-0.0880122
-0.0730682
-0.0550384
-0.0586484
-0.0626604
-0.0628955
-0.0672513
-0.0537111
-0.0453454
-0.0443058
-0.0388102
-0.0391215
-0.0445219
-0.039285
-0.040649
-0.0467932
-0.0308208
-0.0427479
-0.0515036
-0.0309356
-0.0528253
-0.0489097
-0.0369067
-0.0485424
-0.0215786
-0.0238353
-0.0472104
-0.0456894
-0.0403449
-0.0333298
-0.0348626
-0.0402068
-0.0486449
-0.03645
-0.0338585
-0.0240476
-0.0151182
-0.0380853
-0.0428775
-0.0323424
-0.0342606
-0.0433689
-0.0443861
-0.0270392
-0.0340906
-0.0583628
-0.0587556
-0.0462542
-0.0219296
-0.028934
-0.0374864
-0.00485056
-0.0173081
-0.0481334
-0.0545666
-0.0547872
-0.0408966
-0.0539083
-0.0757489
-0.0712636
-0.0492299
-0.04738
-0.0574287
-0.0491016
-0.0411609
-0.0454289
-0.0618069
-0.0562843
-0.0519383
-0.0399265
-0.029472
-0.0368418
-0.0303208
-0.0401839
-0.0406684
-0.0549508
-0.0421288
-0.0292114
-0.0391179
-0.00568708
-0.0106917
-0.0128626
-0.0309156
-0.0565791
-0.0426195
-0.0328629
-0.0322128
-0.0386615
-0.0392902
-0.0482611
-0.051801
-0.0571794
-0.0496812
-0.0265785
-0.0341044
-0.0434316
-0.0366547
-0.0387801
-0.0337255
-0.0273279
-0.0273598
-0.034552
-0.0446198
-0.0362907
-0.0333301
-0.0405653
-0.0359028
-0.0303368
-0.0329499
-0.0319056
-0.0274323
-0.0288004
-0.0272962
-0.0271939
-0.0207284
-0.00207166
-0.00231637
-0.0354683
-0.0224452
0.0139183
-0.010147
-0.0163697
-0.0224634
-0.00415286
0.0337993
0.0365685
0.0352486
0.0208427
0.0372639
0.0353448
0.00485198
0.000509249
0.0180266
0.0281294
0.0315837
0.0412189
0.0299444
0.0267581
0.0397478
0.0450829
0.0339969
0.0247634
0.0226709
0.0409949
0.044971
0.0307704
0.0514831
0.0591104
0.0635639
0.0626734
0.0632037
0.0728785
0.0584066
0.0655112
0.0599569
0.0605732
0.0852718
0.0890553
0.088016
0.0883264
0.0822225
0.0809813
0.0818937
0.0772357
0.0842414
0.0800803
0.0908403
0.103519
0.091025
0.119183
0.115756
0.0804641
0.0780119
0.076121
0.070557
0.0661515
0.0708192
0.107568
0.120496
0.0867822
0.0956662
0.114428
0.120362
0.112743
0.100802
0.0987037
0.0955293
0.122271
0.120831
0.105032
0.123631
0.113349
0.0938926
0.107987
0.114402
0.100974
0.100623
0.10536
0.106285
0.0985774
0.103481
0.108275
0.094253
0.0896865
0.0958042
0.102768
0.0946568
0.0824577
0.0860683
0.0933074
0.0929325
0.081663
0.0762075
0.0822933
0.0836936
0.0772492
0.0778837
0.0766114
0.0815363
0.0938415
0.0827714
0.0606058
0.0666335
0.0861259
0.0833098
0.0663427
0.0542979
0.0511583
0.0658191
0.0690978
0.0417508
0.0374965
0.0550456
0.0601296
0.0465254
0.0310763
0.0417091
0.0604419
0.0653824
0.0577151
0.0506831
0.0465652
0.0356488
0.0472016
0.0504463
0.0325375
0.0385462
0.0374542
0.0231552
0.022465
0.0251403
0.0289029
0.0334665
0.0315642
0.0229748
0.00754383
0.0151995
-0.0110398
-0.0180687
0.0322976
0.0473057
0.0372364
0.0193755
0.0169877
0.0202921
0.00643993
0.00949974
0.0124513
0.0141878
0.0445262
0.00822463
-0.00899564
0.0135792
0.00868543
0.0251056
0.0276899
0.0153703
0.00316623
0.0121842
0.022608
0.00767982
-0.0153252
-0.0161248
-0.00945535
-0.0090985
0.0110974
0.00820203
0.00219556
0.00297044
0.000342864
-0.00992958
-0.000123834
0.0144766
-0.0113915
-0.0159467
-0.00133909
0.00336466
-0.0108136
-0.0157661
0.00269146
-0.0201981
-0.041159
-0.0259084
-0.00718205
-0.00776161
-0.0214979
0.0126755
0.00473684
-0.0354246
-0.0319972
-0.0272255
-0.0233867
-0.0187639
-0.0156188
-0.0181662
-0.0125526
-0.0168419
-0.0130093
-0.0149433
-0.0324579
-0.0193095
-0.0202208
-0.0189083
-0.00711028
-0.0186125
-0.0222701
-0.0270213
-0.0298929
-0.0109972
-0.00552115
-0.0357092
-0.0428402
-0.0201972
-0.0320397
-0.0395801
-0.0259617
-0.0232444
-0.0223994
-0.00431187
-0.00679245
-0.0155967
-0.0144489
-0.0160685
-0.00919733
-0.000625043
-0.00721001
-0.0158939
-0.015707
-0.0247644
-0.0222551
-0.0164226
-0.0205416
-0.0178914
-0.0157281
-0.0182596
-0.0206258
-0.00888408
-0.00300382
-0.00587
-0.00929502
-0.00603668
0.00117857
-0.0083716
-0.00343296
0.00220114
-0.00433067
-0.014972
-0.0167537
0.00221019
-0.0202666
-0.0264258
-0.0195398
-0.00588348
-0.00170848
-0.0122196
0.0314461
0.0532339
0.0171737
-0.00662487
-0.00898029
-0.0306557
-0.0393828
-0.0138868
0.00408731
-0.0162523
-0.015766
0.0136061
0.00983831
-0.00318015
0.00836581
0.00623671
-0.00583901
-0.0151388
-0.0179179
-0.00938384
-0.009676
-0.00985282
-0.00488592
0.00433748
3.09722e-006
-0.0106493
-0.00434897
0.00318027
0.0101927
0.0138952
-0.00257358
-0.00815687
0.00111584
-0.00686799
-0.00829383
-0.00540147
-0.0124615
-0.014749
-0.0195166
-0.0259697
-0.0132458
-0.0024008
-0.00140435
-0.0041436
-0.0154344
-0.0180391
-0.0146888
-0.00911012
-0.00705164
0.00669106
0.0112556
-0.00530152
-0.0140109
-0.0219859
-0.018411
-0.0135236
-0.029591
-0.0208851
-0.0176544
-0.0211003
0.00164231
-0.0214817
-0.0434442
-0.0181352
-0.0013712
0.00108455
0.0104979
0.0171384
0.0142523
0.010039
0.00463114
-0.00791759
-0.00963748
-0.00963901
0.00489839
0.0337444
0.0356395
0.0163186
-0.00246371
0.0090932
0.00185586
0.0227693
0.0398623
0.0262436
0.0200896
0.000627916
0.00411586
-0.0071843
-0.00903116
0.00577268
-0.000638544
0.00179232
0.00204007
0.0110002
0.0204991
0.0233109
0.0211792
0.0138414
0.0150556
0.0126239
0.0444127
0.0513656
0.0345071
0.0409394
0.0358344
0.0474162
0.0479401
0.0396661
0.0268337
0.0416392
0.0752184
0.0766323
0.0828592
0.077797
0.0722739
0.0920657
0.0809182
0.0585701
0.0697799
0.0733507
0.0901492
0.0751178
0.0452782
0.053731
0.0476473
0.0432505
0.0487951
0.0465409
0.0657285
0.0645549
0.0431535
0.0505807
0.0488122
0.0407449
0.0372067
0.0699747
0.0957976
0.0824188
0.0645991
0.0441415
0.0569121
0.0648548
0.0509945
0.0464343
0.038346
0.0289532
0.0175092
0.00627226
0.00448057
0.0193293
0.00995122
-0.00459814
0.00265497
-0.00339424
-0.000919249
-0.00414535
-0.00532746
-0.00472502
-0.00557638
-0.00507543
0.00764784
0.00253997
-0.0203718
-0.0249821
-0.0241162
-0.0115464
-0.0120156
-0.0192633
-0.0280511
0.000814636
-0.00553587
-0.0260507
-0.0107611
-0.0477775
-0.0402794
-0.032496
-0.0506845
-0.0371051
-0.037995
-0.0415452
-0.0258819
-0.0290538
-0.0330282
-0.0126935
-0.00986954
-0.0123269
-0.00980904
-0.0380579
-0.0508394
-0.0239644
-0.0253063
-0.0398164
-0.074529
-0.0675572
-0.00307796
-0.00131608
-0.0275265
-0.0159695
-0.0118818
-0.044455
-0.0238169
-0.023017
-0.0360227
0.0182779
0.0150664
-0.0144278
-0.0269494
-0.0312404
-0.0160635
-0.00522649
-0.0206017
-0.0311399
-0.0138737
-0.00491331
-0.00243701
-0.00367464
-0.0138851
-0.0223307
-0.0342518
-0.0468421
-0.0542302
-0.0684665
-0.0855183
-0.0812727
-0.0815469
-0.0951069
-0.120692
-0.129038
-0.132905
-0.150099
-0.153492
-0.167035
-0.185764
-0.195793
-0.201306
-0.204538
-0.199751
-0.163209
-0.13615
-0.121767
-0.102188
-0.0704616
-0.0315554
0.00864448
0.0443203
0.0577043
0.106056
0.15764
0.186698
0.229425
0.267951
0.339327
0.397526
0.431437
0.451878
0.452615
0.474382
0.480913
0.452962
0.44433
0.497888
0.523589
0.522468
0.511642
0.474293
0.428651
0.388978
0.379536
0.363568
0.335271
0.336775
0.358134
0.348319
0.331217
0.328645
0.317367
0.295115
0.282619
0.276633
0.264956
0.248457
0.212085
0.19087
0.197932
0.166458
0.146691
0.159903
0.134368
0.0873356
0.0610048
0.0425057
0.0158878
-0.0148866
-0.0459388
-0.0774618
-0.0867009
-0.0929286
-0.12442
-0.147425
-0.187146
-0.223715
-0.248182
-0.252508
-0.243566
-0.27616
-0.29704
-0.306928
-0.331547
-0.346644
-0.354018
-0.374538
-0.383157
-0.402918
-0.412948
-0.420445
-0.435662
-0.44488
-0.464378
-0.453412
-0.467182
-0.485819
-0.467369
-0.448785
-0.446938
-0.450625
-0.440593
-0.42256
-0.405243
-0.381389
-0.354795
-0.349332
-0.333958
-0.32872
-0.315753
-0.28326
-0.264496
-0.263744
-0.254288
-0.230382
-0.203223
-0.192937
-0.182566
-0.138059
-0.133283
-0.14603
-0.126048
-0.123053
-0.113764
-0.096928
-0.107347
-0.110897
-0.0955374
-0.0953177
-0.0943717
-0.0949047
-0.0841734
-0.0694596
-0.0750441
-0.0641791
-0.0730636
-0.0618235
-0.0434984
-0.0760393
-0.0773137
-0.0911176
-0.0881943
-0.0502589
-0.0470263
-0.0482415
-0.0727051
-0.0732926
-0.0669642
-0.0807698
-0.0688445
-0.0573944
-0.0676774
-0.0799788
-0.0685827
-0.0567427
-0.0616584
-0.0504558
-0.0651753
-0.0647679
-0.0750991
-0.0879626
-0.0390986
-0.0392189
-0.0490379
-0.0553011
-0.0558086
-0.0534338
-0.0411363
-0.0319657
-0.0700583
-0.0626239
-0.038923
-0.0382406
-0.0418615
-0.0370412
-0.0309811
-0.0538084
-0.0885655
-0.076204
-0.0505867
-0.0585025
-0.0486889
-0.044857
-0.0417197
-0.0440203
-0.0535579
-0.0532065
-0.039927
-0.042771
-0.0488764
-0.0404543
-0.0437668
-0.0401028
-0.0387487
-0.0409608
-0.0409403
-0.0378131
-0.0336177
-0.00930053
-0.00572178
-0.0396709
-0.0468874
-0.0340838
-0.0299731
-0.0252984
-0.0278583
-0.046527
-0.021266
-0.0101268
-0.0322472
-0.0388393
-0.0601677
-0.0525224
-0.0321896
-0.0554247
-0.0704292
-0.00132773
-0.00015535
-0.0258582
0.0127015
-0.0222663
-0.0415017
-0.0207188
-0.0426325
-0.0449876
-0.0105824
-0.0112882
-0.0120639
0.00504044
0.00288876
-0.0137286
-0.00107425
0.00656341
-0.0051026
-0.00533058
-0.0203243
-0.0142126
-0.00303613
0.0012564
-0.00519765
-0.0171888
-0.00945514
0.00129316
0.0263454
0.0339614
0.0193446
0.0236223
0.0448346
0.0309306
0.0127715
0.0221451
0.0317887
0.0344134
0.0487327
0.0504899
0.0414829
0.0435836
0.0537519
0.0570392
0.0375825
0.0415906
0.0533256
0.0450766
0.0591309
0.0867468
0.083128
0.0734018
0.0966076
0.0866941
0.0575224
0.0758807
0.0855069
0.0811135
0.0824146
0.080154
0.0871312
0.0952207
0.090384
0.090673
0.0892246
0.0952481
0.108005
0.104782
0.091864
0.0875037
0.0979004
0.0951797
0.100381
0.113453
0.11926
0.131596
0.1142
0.0847855
0.0930673
0.107792
0.127761
0.125852
0.0950263
0.109333
0.117909
0.0909624
0.10275
0.112556
0.104665
0.125328
0.149746
0.101042
0.0432524
0.107322
0.151118
0.127438
0.147025
0.159597
0.130871
0.117593
0.125565
0.114662
0.103844
0.115162
0.121753
0.118825
0.120637
0.121473
0.104614
0.0923097
0.0977575
0.109081
0.108317
0.0934149
0.101237
0.104577
0.0991763
0.0957517
0.0990223
0.106738
0.0887018
0.0827918
0.0859706
0.0902917
0.0778926
0.0509805
0.0748134
0.0786757
0.0658491
0.0915846
0.0840782
0.068451
0.0697366
0.0688799
0.0557414
0.0511111
0.07173
0.0723157
0.0575887
0.0462993
0.0472532
0.0543316
0.0455021
0.0258206
0.0224266
0.0455307
0.0573942
0.0383014
0.036531
0.0423299
0.0378898
0.0263268
0.025671
0.0418639
0.0377646
0.0501626
0.0547991
-0.00360962
-0.00134405
0.0273498
0.0172843
0.0233463
0.0295082
0.0298313
0.0364592
0.0116032
-0.0274799
-0.0345115
-0.0142161
0.00365178
-0.00871854
-0.0192141
-0.00480789
0.01544
0.0163871
0.000821135
-0.00351909
-0.000916484
0.000352413
-0.00395587
-0.00502796
-0.00197491
0.00417892
-0.00650223
-0.0178725
-0.0117178
-0.0127767
-0.0127663
-0.0114103
-0.0114663
-0.0237502
-0.0301541
-0.017656
-0.015322
-0.0193005
-0.0228079
-0.020107
-0.0134804
-0.0262037
-0.0255181
-0.00460592
-0.0035723
-0.0194367
-0.0241308
-0.0115043
-0.0173385
-0.0343703
-0.0153167
-0.00790155
-0.0338846
-0.0330859
-0.015401
-0.021812
-0.0333902
-0.0222895
-0.00372905
-0.0169733
-0.0363074
-0.024008
-0.0283143
-0.0184059
-0.0013843
-0.0272638
-0.0249713
-0.0443519
-0.0391839
0.000800659
-0.00111045
-0.00864081
-0.0195526
-0.0136688
-0.00988947
-0.00320261
-0.0116855
-0.000497405
0.0241376
-0.00404896
-0.028345
-0.0320281
-0.017336
-0.00144301
0.00055558
-0.00734797
0.00192721
0.0175437
0.0057292
0.0127531
0.0159009
-0.0115543
-0.0143794
-0.00240227
0.011472
-0.000749969
-0.0231515
-0.0118968
-0.0152131
-0.0133696
-0.00165049
-0.0143276
-0.00463403
0.00925967
-0.00373823
0.0133677
0.0176616
0.000306837
-0.00247035
-0.0174022
-0.0282054
-0.0186088
0.00962175
0.00565903
-0.0114045
-0.000565336
-0.0129078
-0.00259636
0.012141
-0.00296555
-0.010202
-0.0208423
-0.0341203
-0.025207
-0.0101923
-0.0350779
-0.0187775
-0.0111239
-0.030886
-0.0107927
-0.0305578
-0.0109092
0.0473868
0.034501
-0.0154795
-0.0235591
-0.00882913
-0.00945811
-0.0126775
0.00124142
0.0110149
0.0113738
0.0180897
0.00799718
0.00601003
-0.0218706
-0.0165557
0.0131245
-0.00459694
0.00655166
-0.0141458
-0.0294211
-0.00904737
-0.0048596
0.00622734
0.0122101
0.00499706
0.00341671
0.000235519
-0.0148194
0.00196721
0.0213276
0.0130367
-0.00606799
0.00193085
0.0160402
0.0093551
0.00804828
0.00435341
0.00054244
-0.00610122
-0.00331042
0.00513992
-0.00258976
-0.0134203
-0.0133611
-0.0135086
-0.00803667
-0.00217956
-0.00120944
-0.00140971
0.00495301
-0.000344892
-0.000462257
0.0165231
0.0206224
0.0129334
0.013631
0.0189506
0.00316522
0.00655766
0.0163943
0.00689852
0.0112278
0.000458735
-0.013421
-0.00051071
0.0110139
0.0109173
0.00192567
0.00575452
0.00713714
-0.0151498
-0.00426427
0.0127182
-0.000188858
0.00311484
0.00180707
-0.00687412
-0.0156542
-0.0152485
-0.0143897
0.0211463
0.0455188
0.0298043
0.0309876
0.0199646
0.0285535
0.0235123
0.0285629
0.0394184
0.0468113
0.0725203
0.0583908
0.0773503
0.0754158
0.067692
0.0583604
0.0706632
0.09888
0.0822995
0.0751894
0.0627707
0.070197
0.06954
0.0747816
0.0818159
0.0744585
0.0694649
0.0685543
0.0634377
0.060846
0.0505568
0.0384153
0.0493513
0.0473857
0.0546286
0.0562678
0.0575508
0.0647599
0.0661853
0.0740956
0.0637119
0.0781855
0.0825842
0.0728843
0.0809732
0.0746608
0.065698
0.0618009
0.0526793
0.0530656
0.0547411
0.0305567
0.0284479
0.0404416
0.0386544
0.028279
0.0265655
0.0237972
0.0122626
-0.00877359
-0.0180962
-0.0205599
-0.0251032
-0.024755
-0.0226316
-0.00192482
-0.00088376
-0.0267916
-0.037938
0.0164122
0.0240459
-0.0271816
-0.0173331
-0.019379
-0.0382015
-0.00660555
0.00166252
-0.00911142
-0.0036383
-0.00465313
0.0170593
0.00364285
-0.0308463
-0.0384444
-0.0532746
-0.0455347
-0.0274773
-0.0253854
-0.018546
-0.0222219
-0.0246257
-0.0248991
-0.020098
-0.0211875
-0.0280458
-0.0204753
-0.0212222
-0.0280015
-0.016525
-0.0245292
-0.0408021
-0.0412039
-0.0326794
-0.0262635
-0.0350788
-0.0343242
-0.0272543
-0.0251546
-0.027314
-0.0329968
-0.0364162
-0.0267134
-0.029943
-0.0130679
-0.00496309
-0.0314285
-0.0342095
-0.0270197
-0.0195685
-0.0235908
-0.0348737
-0.0452771
-0.0577474
-0.0493216
-0.042124
-0.0573547
-0.0822712
-0.112163
-0.115323
-0.117015
-0.128452
-0.128773
-0.14703
-0.170187
-0.168116
-0.212616
-0.24243
-0.212269
-0.213841
-0.199877
-0.189162
-0.176556
-0.144005
-0.134549
-0.137319
-0.0955209
-0.0354182
0.0126982
0.0475343
0.0698211
0.115343
0.158959
0.207617
0.260362
0.316325
0.360719
0.385808
0.405888
0.426256
0.438179
0.463874
0.493481
0.492051
0.480542
0.482818
0.487668
0.476825
0.480991
0.438866
0.387177
0.367702
0.339302
0.320926
0.29862
0.296523
0.29785
0.296876
0.299904
0.308237
0.272147
0.233844
0.238464
0.224051
0.246555
0.242837
0.18168
0.142807
0.118916
0.106708
0.104916
0.100334
0.0708309
0.0593683
0.0640011
0.0298737
0.0012033
-0.0117403
-0.054661
-0.100267
-0.112298
-0.135548
-0.14089
-0.135283
-0.160782
-0.185528
-0.22274
-0.26269
-0.301674
-0.321985
-0.292881
-0.26656
-0.295143
-0.308663
-0.337064
-0.395206
-0.424876
-0.440808
-0.42571
-0.411292
-0.423292
-0.423511
-0.415825
-0.435201
-0.455698
-0.455463
-0.457715
-0.451723
-0.446778
-0.444167
-0.431145
-0.411908
-0.364572
-0.342166
-0.340627
-0.31081
-0.313499
-0.31843
-0.288315
-0.28087
-0.267845
-0.254046
-0.236355
-0.19474
-0.201261
-0.179064
-0.141364
-0.161425
-0.169536
-0.152984
-0.128019
-0.111831
-0.0995374
-0.0941656
-0.0976545
-0.0858589
-0.0765628
-0.0805015
-0.0883886
-0.0839427
-0.0819151
-0.0831141
-0.0704236
-0.0658148
-0.0713492
-0.0731731
-0.0615024
-0.0616011
-0.0627563
-0.06625
-0.0543307
-0.0301888
-0.037938
-0.0546065
-0.0641334
-0.0543731
-0.0521091
-0.0620763
-0.0649876
-0.0565608
-0.0525465
-0.0497526
-0.0700647
-0.0764567
-0.0609925
-0.0468188
-0.0281515
-0.0422562
-0.0504225
-0.0519347
-0.0670434
-0.067941
-0.0517416
-0.0554701
-0.0840611
-0.0733652
-0.0251606
-0.0381759
-0.0571199
-0.0567103
-0.0726987
-0.0468955
-0.0561881
-0.0685535
-0.0600606
-0.059862
-0.0541797
-0.0642837
-0.064466
-0.0600104
-0.0561654
-0.0711198
-0.0649843
-0.0347792
-0.0414327
-0.0467898
-0.038627
-0.0486733
-0.0536375
-0.0552366
-0.050223
-0.0384083
-0.0436829
-0.0490273
-0.0415136
-0.049298
-0.0556063
-0.0567115
-0.0619064
-0.053475
-0.0456642
-0.0566601
-0.0495706
-0.0494132
-0.0681146
-0.0555174
-0.0473942
-0.0424706
-0.0414531
-0.0570578
-0.0630386
-0.0572105
-0.0554669
-0.0467909
-0.0472574
-0.0560258
-0.0403245
-0.0444277
-0.033629
-0.0012119
-0.031423
-0.06445
-0.052401
-0.0532918
-0.0810456
-0.0795014
-0.00142605
0.037463
0.00646515
0.0128647
-0.0160941
-0.0362308
-0.035446
-0.0337294
-0.00816077
-0.0059032
0.00781248
-0.00729032
-0.012507
0.00487854
0.000622194
0.00554264
0.00153909
0.00860156
0.0198122
0.0213371
0.0184091
0.0163052
0.0363201
0.0397374
0.0308006
0.0386893
0.0295019
0.0472464
0.0578399
0.0311157
0.0328387
0.0427306
0.0444976
0.0418579
0.0535699
0.063456
0.0624197
0.067455
0.0776466
0.0971628
0.0852379
0.0691478
0.0821845
0.0876283
0.0997204
0.104638
0.100478
0.115245
0.113854
0.110137
0.10786
0.115744
0.128498
0.113841
0.112534
0.113401
0.113347
0.101367
0.093549
0.125062
0.131142
0.110068
0.121132
0.144614
0.126751
0.103718
0.107603
0.136409
0.145048
0.13435
0.133079
0.109958
0.116692
0.129004
0.13266
0.143489
0.141403
0.144402
0.133576
0.130097
0.1132
0.123159
0.143268
0.142802
0.154998
0.128024
0.104966
0.13482
0.165496
0.160823
0.128563
0.119439
0.139158
0.138446
0.130072
0.126869
0.130751
0.132724
0.138884
0.144405
0.135527
0.127524
0.120687
0.128287
0.135554
0.130654
0.105666
0.107584
0.132309
0.123668
0.119423
0.115297
0.109
0.112263
0.113857
0.113621
0.114476
0.108431
0.0975849
0.0951146
0.0922587
0.0962943
0.0995095
0.0951748
0.0905158
0.0866918
0.0807796
0.0727662
0.0715505
0.0759533
0.0777352
0.0596191
0.0553175
0.0615619
0.0601292
0.0638634
0.0656905
0.0596258
0.0617723
0.0523105
0.0414803
0.0675588
0.0838332
0.0995721
0.100997
0.0842618
0.0414341
0.00349175
0.030327
0.0387588
0.0195485
0.00742103
0.0170942
0.0423077
0.0428473
0.0345641
0.0353894
0.0273419
0.0255255
0.0231196
0.00436115
-0.0114795
-0.00512356
0.0276903
0.0261795
0.00649354
0.0187004
0.0307814
0.0186325
-0.00892717
0.00186367
0.0287342
0.0234073
0.0226243
-0.00282912
-0.0161022
-0.00626284
-0.0212904
-0.00507901
0.00155293
0.00284395
0.00606548
-0.00150478
-0.00161018
-0.0140402
-0.00765064
-0.00337746
-0.00724304
-0.00335446
-0.0128927
-0.0100948
-0.00422988
-0.0195733
-0.0213799
-0.0188581
-0.0141493
-0.00631438
-0.0133282
-0.0190828
-0.0183976
-0.0240368
-0.0297332
-0.0312143
-0.0242284
-0.0275695
-0.0320985
-0.0397561
-0.0395688
-0.0186451
-0.0201647
-0.0163624
-0.0105043
-0.0328623
-0.0396874
-0.047184
-0.0314894
-0.0166595
-0.017665
-0.00939455
-0.00966609
-0.00924449
-0.0208651
-0.00325934
0.00281986
-0.0244279
-0.0328708
-0.0404557
-0.0332127
-0.0282523
-0.041755
-0.0289539
-0.0261108
0.00650986
0.0146662
-0.05684
-0.0511443
-0.0223014
-0.0312797
-0.029968
-0.0321857
-0.0176999
-0.0152481
-0.0425658
-0.0474121
-0.033592
-0.0399747
-0.0295079
-0.0282221
-0.0462289
-0.0367094
-0.0538958
-0.0690493
-0.0574335
-0.0212873
-0.0148016
-0.0291037
-0.0352451
-0.0411949
-0.0378426
-0.0520091
-0.0394643
-0.0349492
-0.0392019
-0.0189832
-0.0120997
-0.027424
-0.0419077
-0.047585
-0.0595688
-0.050039
-0.0182239
-0.0183787
-0.0317623
-0.0396122
-0.0421197
-0.0374109
-0.0275342
-0.0254558
-0.0280642
-0.0251808
-0.0205771
-0.0209974
-0.029184
-0.0419029
-0.0149657
-0.00324654
-0.0446974
-0.0663537
-0.0413278
-0.0177956
-0.0229819
-0.0281398
-0.0295257
-0.0273731
-0.0338698
-0.0381401
-0.0362324
-0.034114
-0.0236745
-0.025737
-0.026076
-0.0144389
-0.0205709
-0.0252406
-0.0272623
-0.0285136
-0.0389474
-0.0195965
-0.0115688
-0.0430394
-0.0152325
-0.0363984
-0.0657906
-0.0396404
-0.0341315
-0.0223843
-0.0224446
-0.0332802
-0.0227834
-0.00178038
-0.00404912
-0.0223427
-0.0344134
-0.0290353
-0.0090251
-0.0282613
-0.0376972
-0.0143636
-0.0223651
-0.00087101
0.00190186
-0.018291
-0.0256981
-0.050547
-0.028021
-0.00924001
-0.0172507
0.00397694
0.0145477
-0.00937076
-0.022565
-0.0107949
-0.00581601
-0.0114047
-0.00637994
-0.0396216
-0.0730826
-0.0267903
0.0141583
0.00160313
-0.0166666
-0.0118904
-0.0093108
-0.020151
-0.0225932
-0.0227608
-0.0117056
-0.00240316
0.00324438
0.004398
-0.00173405
-0.0119167
-0.0129103
-0.0104937
-0.0184856
-0.0157624
-0.00926973
0.00497254
0.00587199
0.00527194
0.010967
0.0107233
0.0193016
0.0134798
0.019075
0.0349614
0.0390828
0.0364569
0.0391735
0.0483862
0.0632983
0.070142
0.0611554
0.0585589
0.0625349
0.0622107
0.0646453
0.0678244
0.0696616
0.0940075
0.0836634
0.0543995
0.0539774
0.0771758
0.0788119
0.0337563
0.0269449
0.022388
0.00716936
0.0144369
0.0413897
0.030258
0.00827768
0.0226692
0.0136171
0.0122513
0.0326351
0.0487594
0.0485433
0.0628405
0.0704552
0.0501599
0.0557178
0.0669075
0.0455437
0.055495
0.0626979
0.0211615
0.00996551
0.0132551
0.011227
0.00910894
0.0091373
0.00953394
0.000484168
-0.00388163
0.00149986
0.000618877
-0.0126072
-0.0143256
-0.00973308
-0.00805629
-0.00953
-0.0123744
-0.00977338
-0.00985596
-0.0166844
-0.0192482
-0.0054642
-0.00518499
-0.0162144
-0.0193268
-0.0212888
-0.0138814
-0.0109217
-0.0122811
-0.0118986
-0.00678565
-0.0160257
-0.0287663
-0.0202037
-0.0185633
-0.0100772
0.00103761
0.00960103
0.0114866
-0.0113669
-0.00394904
0.0108229
0.00609525
6.22283e-005
-0.0110529
-0.010019
-0.0146193
-0.00767273
-0.0090515
-0.0196943
-0.00861196
-0.00388576
-0.0126601
0.00187133
0.0204858
-4.82168e-005
0.00905125
0.000601666
-0.0245265
-0.0213969
-0.0129996
-0.00425202
-0.00900813
0.00292704
0.0137789
0.0017808
-0.0198505
0.0260665
0.0356614
-0.0110043
-0.0019438
-0.00124056
0.00596024
-0.0195359
-0.0319542
0.0014737
-0.0194674
-0.0439582
-0.0511265
-0.0670331
-0.0916669
-0.0929454
-0.0957224
-0.135803
-0.128964
-0.107974
-0.141612
-0.155702
-0.142117
-0.147798
-0.159757
-0.157078
-0.128909
-0.103442
-0.0919004
-0.0755142
-0.0385
0.0119634
0.0567515
0.0858048
0.0921334
0.121817
0.176999
0.222873
0.270664
0.307602
0.341905
0.390754
0.436276
0.472534
0.496518
0.496144
0.494267
0.507692
0.519195
0.522546
0.530531
0.537971
0.530742
0.503782
0.448102
0.393778
0.370952
0.340817
0.311594
0.298516
0.304801
0.313633
0.296143
0.313391
0.307368
0.248987
0.241096
0.237498
0.255964
0.318264
0.287183
0.185538
0.150197
0.164102
0.15327
0.121794
0.0968285
0.0865775
0.0732749
0.0501598
0.0444528
0.0253343
-0.022075
-0.0297259
-0.0426438
-0.101928
-0.131743
-0.142301
-0.156835
-0.177585
-0.211769
-0.238562
-0.23608
-0.255364
-0.286382
-0.311028
-0.310134
-0.305485
-0.330843
-0.340967
-0.396643
-0.413702
-0.393035
-0.408602
-0.413442
-0.432665
-0.452444
-0.471998
-0.461567
-0.457389
-0.454678
-0.432599
-0.415257
-0.408685
-0.403839
-0.384606
-0.36781
-0.353232
-0.331635
-0.319779
-0.293455
-0.245494
-0.236795
-0.228328
-0.21514
-0.204351
-0.19114
-0.211727
-0.190353
-0.152254
-0.133637
-0.109661
-0.125425
-0.148954
-0.1252
-0.0980429
-0.0983013
-0.0897553
-0.089166
-0.1043
-0.107952
-0.0929634
-0.0902391
-0.0857561
-0.0825665
-0.0837926
-0.0676142
-0.0662506
-0.0549398
-0.0449147
-0.0603805
-0.0744958
-0.0673551
-0.0589786
-0.0653112
-0.0722283
-0.0715483
-0.0710494
-0.0814919
-0.0696423
-0.0552949
-0.0562931
-0.0705461
-0.0790379
-0.0608271
-0.057041
-0.0578638
-0.0545195
-0.0582487
-0.0622855
-0.0608336
-0.0610466
-0.0580122
-0.0657443
-0.0681813
-0.0651919
-0.0715883
-0.0641444
-0.066618
-0.0707756
-0.0764151
-0.0813858
-0.0846033
-0.0740569
-0.0628111
-0.0830001
-0.078815
-0.0694839
-0.0682488
-0.0723431
-0.0869689
-0.0892762
-0.114348
-0.0971921
-0.043737
-0.0668415
-0.0873119
-0.0559191
-0.0594186
-0.0765779
-0.0651986
-0.0691352
-0.0873101
-0.0777214
-0.0654414
-0.0646103
-0.0574232
-0.0561106
-0.0649161
-0.0710724
-0.0597775
-0.0651751
-0.0713411
-0.0592754
-0.0749024
-0.0800787
-0.0716063
-0.062252
-0.04377
-0.0479275
-0.0535283
-0.0514318
-0.0525661
-0.0639356
-0.0696208
-0.0597692
-0.0515807
-0.0612885
-0.0731371
-0.0553567
-0.0451402
-0.0526248
-0.0508797
-0.0638983
-0.0795997
-0.0598351
-0.0314016
-0.0280627
-0.0445746
-0.0477096
-0.0492771
-0.0501424
-0.0432396
-0.0405784
-0.0472436
-0.0523866
-0.0522105
-0.0439493
-0.0408447
-0.031123
-0.0469732
-0.0735294
-0.0228554
-0.0169368
-0.0436862
-0.0149518
-0.0105301
-0.00818705
-0.00468175
-0.00978986
-0.00532547
-0.00315897
0.000770251
0.0164481
0.0217871
0.00363438
0.00478593
-0.0129918
0.0110615
0.0537251
0.0418174
0.0552112
0.0598475
0.0387413
0.031979
0.0387116
0.0461409
0.0454983
0.0350217
0.065933
0.0814172
0.0556022
0.0625453
0.0662299
0.0635671
0.0804038
0.0885388
0.0697408
0.0667711
0.0854085
0.0774714
0.0608337
0.0684378
0.0953021
0.0975187
0.104242
0.100676
0.0830484
0.112596
0.102539
0.0800562
0.0912694
0.0872338
0.0759305
0.107269
0.152099
0.138222
0.132407
0.153419
0.149038
0.135083
0.13543
0.13402
0.142874
0.145082
0.128798
0.137225
0.140595
0.136146
0.141096
0.135628
0.139865
0.139861
0.152596
0.144979
0.110851
0.142008
0.168216
0.134241
0.122859
0.112889
0.123208
0.158765
0.121584
0.118759
0.138449
0.121859
0.120226
0.134786
0.139762
0.120332
0.118617
0.113666
0.128456
0.127889
0.114805
0.127997
0.122228
0.127261
0.124876
0.118893
0.126193
0.119727
0.0975202
0.0896701
0.103339
0.114738
0.124106
0.114684
0.103691
0.093305
0.0976428
0.112753
0.105606
0.080102
0.0790733
0.105308
0.0875709
0.0646196
0.0592337
0.0722365
0.0715124
0.0710172
0.0577823
0.0399111
0.0595701
0.0559735
0.0603606
0.0579724
0.0470272
0.0416995
0.0511035
0.0492822
0.0342019
0.0457557
0.0457753
0.0360462
0.0243289
0.0223825
0.0299895
0.028977
0.0242331
0.0227175
0.00746592
0.0045862
0.0152489
0.0236705
0.0340918
0.0277531
0.0198703
0.018614
0.0180937
0.0133463
0.0203331
0.0259437
0.0220065
0.0273052
0.0216007
0.0116536
-0.000751414
-0.0207849
-0.0165549
0.0149051
0.00563867
-0.0042403
-0.00255826
0.00690226
0.0303814
0.0291175
0.0193222
-0.00384055
-0.00726956
0.00406514
0.00711953
0.00577895
0.00486915
0.00617394
0.000456403
-0.00351786
-0.000957398
0.00197587
0.00518235
-0.00336606
0.00637692
0.022528
-0.00773826
-0.013208
-0.0156471
0.00217635
-0.000530872
-0.05261
-0.0529654
-0.0245705
-0.0174702
-0.0167785
-0.00966849
-0.0403545
-0.0600723
-0.0400535
-0.0325015
-0.0235732
-0.0333646
-0.0309012
-0.0311355
-0.0599517
-0.047177
-0.0405974
-0.040979
-0.032092
-0.0437331
-0.0447458
-0.0360353
-0.0325768
-0.024419
-0.0246795
-0.0285329
-0.025194
-0.0298963
-0.0568695
-0.057317
-0.0223934
-0.0261898
-0.033727
-0.0329541
-0.0267513
-0.0269428
-0.034314
-0.0246331
-0.0376732
-0.0432352
-0.035167
-0.0123772
-0.0248449
-0.0306235
-0.0118339
-0.0216519
-0.0162923
-0.0109868
-0.0129616
-0.00741495
-0.00149769
-0.0242989
-0.0248376
-0.0190593
-0.0288416
-0.0130066
-0.0363385
-0.0536061
-0.0495843
-0.0320748
0.0120746
0.0219539
-0.0174213
-0.0211113
-0.00524339
-0.0389989
-0.065598
-0.0752762
-0.0322587
0.00126305
-0.018854
-0.0166916
-0.0242612
-0.0425017
-0.0372861
-0.0284328
-0.0177234
-0.0139252
-0.0188151
-0.0262011
-0.0249412
-0.0189566
-0.0252398
-0.0208553
-0.0159332
-0.0176564
-0.0182425
-0.0199225
-0.0289182
-0.0234198
-0.026567
-0.0464358
-0.0420313
-0.0292856
-0.00806441
-0.0131816
-0.0304192
-0.0375485
-0.0353511
-0.0246399
-0.0162782
-0.00919318
-0.0183842
-0.0119223
-0.00994263
-0.0206315
-0.0282082
-0.0149023
-0.0029305
-0.0124759
-0.0206714
-0.0245856
-0.0142153
-0.0194858
-0.0272597
-0.0303498
-0.0175373
-0.00559291
-0.030301
-0.0334817
-0.0110065
-0.0138109
-0.0419024
-0.0203601
-0.00132353
-0.0119807
-0.011551
-0.0162625
-0.0183289
-0.0229286
-0.0191869
-0.0181631
-0.013845
0.00084972
6.56407e-005
-0.00400593
-0.0041457
-0.00912771
-0.0107417
-0.0118139
-0.0192239
-0.00491696
0.0170922
0.0137196
-0.00918153
-0.0178057
-0.00837396
-0.00911174
-0.0132275
-0.00789199
-0.00622135
-0.00526543
0.00699696
-0.00134424
-0.00613992
-0.00819626
-0.00529329
-0.00420679
0.000269379
-0.00869746
-0.0239959
0.01042
0.0195269
0.0132329
-0.0106153
-0.0282161
-0.0227915
-0.0155647
-0.00073808
0.0165265
0.0251229
0.0160104
0.0312179
0.00884148
0.0190343
0.0509934
0.0289394
0.0270924
0.0256519
0.0497782
0.0745769
0.0840872
0.0712767
0.0470438
0.06223
0.0596365
0.0690433
0.101232
0.128005
0.109209
0.0677403
0.0735628
0.0807121
0.0722913
0.0744601
0.0694187
0.0673887
0.0755906
0.0812228
0.0674406
0.0683405
0.0709518
0.0752333
0.101078
0.0653226
0.0287609
0.0291672
0.037321
0.0470283
0.0491395
0.0495642
0.0462797
0.0573337
0.0758405
0.0819688
0.075924
0.0639274
0.0691952
0.0869181
0.0712419
0.0502514
0.0359623
0.0303218
0.0392138
0.0284705
0.0148873
0.0212444
-0.001672
-0.00904867
-0.00102637
-0.000685326
0.0299623
0.0519736
0.0254673
-0.00739015
-0.00339859
-0.0113422
-0.0240114
-0.0272243
-0.00884311
-0.00178756
-0.0290448
-0.0266708
-0.0257832
-0.0355496
-0.0401721
-0.0308664
-0.0138398
-0.0182722
-0.0372993
-0.0289989
