-0.0143433
-0.0138996
-0.0149559
-0.0145121
-0.0145684
-0.0146247
-0.015181
-0.0152374
-0.0157937
-0.01535
-0.0164064
-0.0164628
-0.0160191
-0.0160755
-0.0166319
-0.0166883
-0.0167447
-0.0168011
-0.0163575
-0.0164139
-0.0169703
-0.0170267
-0.0170831
-0.0171395
-0.0176959
-0.0172523
-0.0173087
-0.0178651
-0.0174215
-0.0174779
-0.0180343
-0.0175906
-0.018147
-0.0182034
-0.0182597
-0.0178161
-0.0183724
-0.0179287
-0.017985
-0.0185413
-0.0185976
-0.0181539
-0.0187102
-0.0182664
-0.0188226
-0.0188788
-0.018935
-0.0189912
-0.0190474
-0.0191035
-0.0186596
-0.0192157
-0.0192718
-0.0188278
-0.0188839
-0.0194399
-0.0189959
-0.0185518
-0.0186077
-0.0176637
-0.0167195
-0.0157754
-0.0148312
-0.013387
-0.0114427
-0.0109985
-0.00955417
-0.00910983
-0.00916546
-0.00822105
-0.00727662
-0.00633214
-0.00488763
-0.00294308
-0.0014985
0.000446124
0.00189079
0.00233549
0.00178023
0.000725013
-0.000830162
-0.00288529
-0.00594038
-0.00799543
-0.0110504
-0.0136054
-0.0161603
-0.0177152
-0.01877
-0.0203247
-0.0203795
-0.0204341
-0.0214887
-0.0215433
-0.0215978
-0.0216523
-0.0212067
-0.0212611
-0.0213154
-0.0208696
-0.0214238
-0.0219779
-0.024032
-0.027586
-0.03564
-0.0446939
-0.0497478
-0.0453015
-0.0253553
0.0185911
0.0940375
0.180984
0.24143
0.277377
0.319324
0.34627
0.321717
0.278664
0.219611
0.119058
0.0280051
-0.0120478
-0.0166006
-0.0106533
-0.00320599
0.000241421
-0.00131109
-0.00686353
-0.0104159
-0.0124682
-0.0130204
-0.0120725
-0.0121246
-0.0116766
-0.0107285
-0.0107803
-0.0093321
-0.00938377
-0.00793537
-0.00748688
-0.00653831
-0.00608967
-0.00564093
-0.00469212
-0.00324322
-0.00229424
-0.00134518
-0.000396025
0.000553211
0.00150253
0.00295194
0.00440144
0.00585103
0.0073007
0.00925046
0.0107003
0.0121503
0.0141003
0.0160504
0.0180006
0.0199509
0.0219013
0.0238518
0.0268024
0.0292531
0.0312039
0.0336548
0.0366057
0.0390568
0.042008
0.0449592
0.0479106
0.051862
0.0553136
0.0597652
0.064717
0.0691688
0.0751208
0.0805729
0.087025
0.0934773
0.0994296
0.105882
0.112335
0.118787
0.12374
0.127693
0.131146
0.133099
0.133052
0.132006
0.129459
0.124913
0.119366
0.11232
0.103774
0.0947278
0.0851818
0.075136
0.0650903
0.0550447
0.0454992
0.0364538
0.0279086
0.0208634
0.0143184
0.00877347
0.00372867
-0.000316028
-0.00386061
-0.00640507
-0.00894942
-0.0109937
-0.0130378
-0.0140818
-0.0151257
-0.0161694
-0.0162131
-0.0172566
-0.0173
-0.0178433
-0.0178865
-0.0184295
-0.0184725
-0.0185153
-0.018558
-0.0186006
-0.019143
-0.0191853
-0.0192275
-0.0192696
-0.0193116
-0.0188534
-0.0183952
-0.0194368
-0.0189782
-0.0190196
-0.0190608
-0.0196019
-0.0191429
-0.0191837
-0.0192245
-0.0192651
-0.0193055
-0.0193459
-0.0198861
-0.0199262
-0.0199662
-0.020006
-0.0200457
-0.0200853
-0.0206248
-0.0211641
-0.0212033
-0.0212424
-0.0217813
-0.0218201
-0.0218588
-0.0218974
-0.0224358
-0.0224741
-0.0225123
-0.0235503
-0.0235882
-0.024126
-0.0241636
-0.0237011
-0.0242385
-0.0247757
-0.0248128
-0.0253498
-0.0253867
-0.0259234
-0.02646
-0.0269964
-0.0265327
-0.0270689
-0.0271049
-0.0276409
-0.0276766
-0.0282123
-0.0277478
-0.0282832
-0.0288184
-0.0283535
-0.0288885
-0.0284233
-0.028958
-0.0289925
-0.029527
-0.0295613
-0.0295954
-0.0296294
-0.0301633
-0.029697
-0.0302306
-0.0297641
-0.0302974
-0.0303306
-0.0303637
-0.0298966
-0.0309294
-0.030462
-0.0304945
-0.0305269
-0.0310591
-0.0310912
-0.0311231
-0.0306549
-0.0311866
-0.0312181
-0.0312495
-0.0312808
-0.0313119
-0.0313429
-0.0308737
-0.0314044
-0.0314349
-0.0314654
-0.0314956
-0.0315258
-0.0315557
-0.0315856
-0.0321153
-0.0311449
-0.0316743
-0.0312036
-0.0317328
-0.0317618
-0.0317906
-0.0313194
-0.0318479
-0.0313764
-0.0319047
-0.0319328
-0.0319609
-0.0319887
-0.0315165
-0.0310441
-0.0305715
-0.0300988
-0.028626
-0.0276531
-0.0256799
-0.0247067
-0.0227333
-0.0217598
-0.0217861
-0.0208123
-0.0203383
-0.0198642
-0.0188899
-0.0179156
-0.015941
-0.0134663
-0.0119915
-0.0105166
-0.00954148
-0.00956624
-0.0105909
-0.0126153
-0.0151397
-0.0181639
-0.0206879
-0.0237118
-0.0257356
-0.0287592
-0.0297827
-0.030806
-0.0318292
-0.0323523
-0.0323752
-0.032398
-0.0329206
-0.0324431
-0.0324654
-0.0329876
-0.0320097
-0.0320316
-0.0325534
-0.0325751
-0.0340966
-0.0376179
-0.0451391
-0.0541602
-0.0601811
-0.0572019
-0.0377226
0.0072569
0.0852365
0.175216
0.236196
0.271676
0.316656
0.335637
0.301617
0.256098
0.181579
0.0725595
-0.00345944
-0.0264783
-0.024497
-0.0170155
-0.0105339
-0.00955218
-0.0140703
-0.0190883
-0.0216062
-0.0221239
-0.0221414
-0.0211589
-0.0211762
-0.0206933
-0.0192104
-0.0187272
-0.017244
-0.0172606
-0.0162771
-0.0157934
-0.0148096
-0.0133257
-0.0123416
-0.0113574
-0.010373
-0.00938852
-0.00790389
-0.00691913
-0.00543424
-0.00394921
-0.00246404
-0.000978737
0.0010067
0.00249227
0.00447798
0.00696382
0.0084498
0.0109359
0.0129221
0.0159085
0.017895
0.0208817
0.0233685
0.0258554
0.0288424
0.0318296
0.0348169
0.0378043
0.0417919
0.0447796
0.0487674
0.0537554
0.0582435
0.0632317
0.0687201
0.0747086
0.0816972
0.0881859
0.0951748
0.102664
0.109653
0.115642
0.121632
0.126121
0.130111
0.1316
0.13159
0.13008
0.126571
0.121561
0.115051
0.107042
0.0970324
0.0870232
0.0765141
0.0655051
0.0544963
0.0444875
0.0344789
0.0254705
0.0174621
0.00995387
0.00344576
-0.00206223
-0.0065701
-0.0100778
-0.0130855
-0.015593
-0.0176004
-0.0191076
-0.0206148
-0.0216218
-0.0226287
-0.0231355
-0.0236422
-0.0241487
-0.0241552
-0.0246615
-0.0246677
-0.0246738
-0.0256797
-0.0246856
-0.0251913
-0.0251969
-0.0252024
-0.0252078
-0.0247131
-0.0257183
-0.0257233
-0.0252283
-0.0252331
-0.0252378
-0.0252424
-0.0252469
-0.0247513
-0.0257555
-0.0252597
-0.0252637
-0.0257677
-0.0247715
-0.0252752
-0.0252788
-0.0257823
-0.0257857
-0.025789
-0.0257922
-0.0257953
-0.0262982
-0.0268011
-0.0268038
-0.0268065
-0.027309
-0.0273115
-0.0278138
-0.027816
-0.0283182
-0.0283202
-0.0288221
-0.0288239
-0.0288257
-0.0293273
-0.0293288
-0.0303302
-0.0303315
-0.0303327
-0.0308338
-0.0308349
-0.0313358
-0.0318366
-0.0313373
-0.031838
-0.0318385
-0.0323389
-0.0323393
-0.0328395
-0.0328396
-0.0333397
-0.0328396
-0.0328395
-0.0333393
-0.0333389
-0.0338385
-0.033838
-0.0333374
-0.0338367
-0.0338359
-0.0338351
-0.0343341
-0.033833
-0.0343319
-0.0343306
-0.0338293
-0.0343279
-0.0343264
-0.0343248
-0.0343231
-0.0343214
-0.0348195
-0.0343176
-0.0343155
-0.0348134
-0.0348112
-0.034309
-0.0343066
-0.0348042
-0.0353016
-0.034799
-0.0342963
-0.0347935
-0.0342907
-0.0347878
-0.0342847
-0.0342816
-0.0347785
-0.0347752
-0.0342719
-0.0347684
-0.0347649
-0.0347614
-0.0347577
-0.034754
-0.0347502
-0.0347463
-0.0342424
-0.0347383
-0.0352342
-0.03423
-0.0342258
-0.0337214
-0.033717
-0.0332126
-0.032208
-0.0307034
-0.0296987
-0.0281939
-0.0261891
-0.0246842
-0.0241792
-0.0236742
-0.0231691
-0.0221639
-0.0211586
-0.0201533
-0.0176479
-0.0161425
-0.014137
-0.0121314
-0.0116257
-0.01162
-0.0131142
-0.0151084
-0.0176025
-0.0200965
-0.0235905
-0.0255844
-0.0290782
-0.030572
-0.0320657
-0.0330593
-0.0335529
-0.0340464
-0.0340399
-0.0340333
-0.0345267
-0.03452
-0.0340132
-0.0340064
-0.0339995
-0.0339925
-0.0339856
-0.0349785
-0.0384714
-0.0449642
-0.053957
-0.0614497
-0.0589424
-0.039935
0.00557242
0.0855799
0.178087
0.237595
0.274603
0.32061
0.331118
0.291126
0.241634
0.153642
0.0431496
-0.0163424
-0.0283343
-0.0228262
-0.0153181
-0.0108099
-0.0128017
-0.0182934
-0.0222851
-0.0232767
-0.0232683
-0.0227598
-0.0222513
-0.0217428
-0.0212342
-0.0207255
-0.0192168
-0.0187081
-0.0176994
-0.0171906
-0.0161817
-0.0151728
-0.0141639
-0.0131549
-0.0121459
-0.0111369
-0.0101278
-0.00861869
-0.00710953
-0.00610034
-0.00409111
-0.00258184
-0.000572536
0.000936802
0.00244617
0.00445558
0.00646502
0.0089745
0.011484
0.0134935
0.0160031
0.0185127
0.0210224
0.023532
0.0265417
0.0290515
0.0320612
0.035071
0.0385808
0.0425907
0.0466006
0.0511105
0.0561204
0.0616303
0.0671403
0.0736503
0.0801604
0.0871704
0.0941805
0.101691
0.108201
0.113211
0.118721
0.122731
0.125242
0.126752
0.125262
0.122772
0.118283
0.112293
0.104803
0.0958137
0.0858241
0.0758345
0.0648449
0.0543554
0.0443659
0.0343763
0.0253868
0.0173973
0.00990787
0.00391841
-0.00157103
-0.00606045
-0.00954987
-0.0130393
-0.0150287
-0.017518
-0.0185074
-0.0204967
-0.0214861
-0.0219754
-0.0219647
-0.022954
-0.0234433
-0.0229326
-0.0239219
-0.0234111
-0.0239004
-0.0238896
-0.0238789
-0.0243681
-0.0238573
-0.0238465
-0.0238358
-0.024325
-0.0238142
-0.0238034
-0.0237926
-0.0237817
-0.0237709
-0.0232601
-0.0237493
-0.0237385
-0.0237276
-0.0237168
-0.023706
-0.0236951
-0.0236843
-0.0241735
-0.0241626
-0.0241518
-0.024141
-0.0241301
-0.0246193
-0.0246085
-0.0245976
-0.0250868
-0.025076
-0.0250652
-0.0250543
-0.0260435
-0.0260327
-0.0260219
-0.0265111
-0.0260003
-0.0269895
-0.0269788
-0.026968
-0.0274572
-0.0279464
-0.0279357
-0.0279249
-0.0284142
-0.0289035
-0.0288927
-0.028882
-0.0298713
-0.0298606
-0.0298499
-0.0298393
-0.0298286
-0.0303179
-0.0303073
-0.0307967
-0.030786
-0.0307754
-0.0312648
-0.0312542
-0.0312437
-0.0317331
-0.0317226
-0.031712
-0.0317015
-0.031691
-0.0321805
-0.03167
-0.0321596
-0.0321491
-0.0321387
-0.0316283
-0.0321179
-0.0326075
-0.0320972
-0.0315868
-0.0320765
-0.0320662
-0.0325559
-0.0320456
-0.0320354
-0.0325251
-0.0325149
-0.0325047
-0.0324946
-0.0324844
-0.0319743
-0.0324641
-0.032454
-0.032944
-0.0324339
-0.0319239
-0.0319139
-0.0324039
-0.0318939
-0.032384
-0.032374
-0.0318641
-0.0323543
-0.0323444
-0.0323346
-0.0323248
-0.032315
-0.0323052
-0.0317955
-0.0322858
-0.0317761
-0.0322665
-0.0317568
-0.0317472
-0.0302376
-0.0292281
-0.0282185
-0.026709
-0.0256996
-0.0236901
-0.0216807
-0.0216713
-0.0211619
-0.0206526
-0.0201432
-0.018634
-0.0176247
-0.0156155
-0.0136063
-0.0115971
-0.0100879
-0.00907882
-0.00956973
-0.0100607
-0.0115516
-0.0145426
-0.0175337
-0.0200247
-0.0225158
-0.0250069
-0.0274981
-0.0294893
-0.0304805
-0.0309717
-0.031463
-0.0314543
-0.0314456
-0.031937
-0.0314284
-0.0314198
-0.0314113
-0.0314028
-0.0313943
-0.0308859
-0.0318775
-0.0333691
-0.0383607
-0.0468524
-0.0558442
-0.0588359
-0.0503277
-0.0208195
0.0396886
0.128697
0.209705
0.254713
0.294721
0.334729
0.322737
0.277745
0.222253
0.12026
0.0217682
-0.0197241
-0.0242163
-0.0182087
-0.010701
-0.00769337
-0.0101858
-0.0156782
-0.0186707
-0.0201632
-0.0196558
-0.0191484
-0.018641
-0.0181337
-0.0176264
-0.0166191
-0.0156119
-0.0151047
-0.0140975
-0.0135904
-0.0120833
-0.0115763
-0.0105693
-0.00906233
-0.0080554
-0.0070485
-0.00604165
-0.00453483
-0.00302805
-0.00152131
-0.000514606
0.00149206
0.00349869
0.00500528
0.00701183
0.00851834
0.0110248
0.0135313
0.0160377
0.018044
0.0205503
0.0230566
0.0255629
0.0285691
0.0310752
0.0340814
0.0375874
0.0400935
0.0440995
0.0476055
0.0516114
0.0561173
0.0611231
0.0656289
0.0711347
0.0771404
0.0841461
0.0911518
0.0976574
0.105163
0.111669
0.118174
0.123679
0.128685
0.13219
0.134196
0.134701
0.133206
0.129711
0.124716
0.118222
0.110227
0.101232
0.0912367
0.0807417
0.0697466
0.0587515
0.0482564
0.0387612
0.0297659
0.0212706
0.0142753
0.00777997
0.00228456
-0.00271088
-0.00620637
-0.00920189
-0.0121975
-0.0136931
-0.0156887
-0.0166844
-0.0186801
-0.0186759
-0.0196717
-0.0201676
-0.0206635
-0.0206594
-0.0211554
-0.0211514
-0.0216475
-0.0216436
-0.0216398
-0.021636
-0.0216322
-0.0216285
-0.0216248
-0.0216211
-0.0216175
-0.021614
-0.0216105
-0.021607
-0.0216036
-0.0216002
-0.0210968
-0.0215935
-0.0210902
-0.021587
-0.0215838
-0.0215807
-0.0215776
-0.0215745
-0.0215715
-0.0220685
-0.0215656
-0.0220627
-0.0225599
-0.0220571
-0.0230543
-0.0230516
-0.0230489
-0.0230462
-0.0235436
-0.0235411
-0.0235386
-0.0235361
-0.0240337
-0.0245313
-0.0245289
-0.0250266
-0.0255243
-0.0255221
-0.0255199
-0.0260178
-0.0260157
-0.0260136
-0.0270116
-0.0265096
-0.0275077
-0.0275058
-0.0275039
-0.0275021
-0.0280003
-0.0279986
-0.0284969
-0.0284952
-0.0289936
-0.0289921
-0.0289905
-0.028989
-0.0294876
-0.0289862
-0.0294848
-0.0294835
-0.0294822
-0.0299809
-0.0299797
-0.0299786
-0.0304774
-0.0304763
-0.0304753
-0.0299743
-0.0304733
-0.0304724
-0.0304715
-0.0304706
-0.0299698
-0.030469
-0.0309683
-0.0304676
-0.0304669
-0.0309663
-0.0304657
-0.0309652
-0.0304647
-0.0309642
-0.0309638
-0.0309634
-0.030963
-0.0309627
-0.0314624
-0.0309622
-0.030962
-0.0309618
-0.0304617
-0.0304616
-0.0304616
-0.0309615
-0.0309616
-0.0304616
-0.0309617
-0.0309618
-0.030462
-0.0304622
-0.0309624
-0.0309627
-0.030963
-0.0304634
-0.0309637
-0.0304642
-0.0304646
-0.0304651
-0.0294656
-0.0289662
-0.0279668
-0.0269674
-0.025468
-0.0244687
-0.0229695
-0.0209702
-0.020471
-0.0199718
-0.0194727
-0.0189736
-0.0179745
-0.0164755
-0.0144765
-0.0124775
-0.0104786
-0.00897966
-0.00798079
-0.00798195
-0.00848313
-0.0104844
-0.0129856
-0.0159869
-0.0189882
-0.0214896
-0.0234909
-0.0259923
-0.0274938
-0.0289952
-0.0299967
-0.0304983
-0.0304998
-0.0310014
-0.030503
-0.0305047
-0.0305064
-0.0305081
-0.0305098
-0.0305116
-0.0305134
-0.0305152
-0.032017
-0.0360189
-0.0425208
-0.0525228
-0.0580247
-0.0545267
-0.0345287
0.0124692
0.0919671
0.180965
0.239963
0.275961
0.321459
0.335956
0.298954
0.251952
0.17195
0.0624473
-0.00705501
-0.0245574
-0.0215597
-0.0135622
-0.00756459
-0.00806704
-0.0130695
-0.018072
-0.0200745
-0.0205771
-0.0200797
-0.0190823
-0.0185849
-0.0180875
-0.0170902
-0.0165929
-0.0160956
-0.0150983
-0.0141011
-0.0136039
-0.0126067
-0.0121095
-0.0111123
-0.0101152
-0.00911808
-0.00812098
-0.00662391
-0.00512685
-0.00362982
-0.00213281
-0.000635813
0.00086116
0.00235811
0.00385505
0.00535196
0.00784886
0.00984574
0.0118426
0.0143394
0.0168363
0.0188331
0.0213298
0.0233266
0.0268234
0.0293201
0.0323168
0.0348135
0.0378102
0.0413068
0.0448035
0.0488001
0.0537967
0.0582933
0.0627899
0.0692865
0.075283
0.0812795
0.0882761
0.0952726
0.101769
0.108266
0.114762
0.119758
0.124255
0.127251
0.128748
0.128244
0.12674
0.123237
0.117733
0.110729
0.102726
0.0932221
0.0832184
0.0732146
0.0622109
0.0522071
0.0422034
0.0326996
0.0241958
0.016192
0.0101882
0.00418441
-0.000819418
-0.00532326
-0.00882711
-0.011331
-0.0138349
-0.0158387
-0.0168426
-0.0178465
-0.0193505
-0.0198544
-0.0203583
-0.0208623
-0.0208662
-0.0213702
-0.0218742
-0.0218781
-0.0218821
-0.0213861
-0.0218902
-0.0223942
-0.0218982
-0.0219022
-0.0219063
-0.0224103
-0.0219144
-0.0219185
-0.0219225
-0.0224266
-0.0219307
-0.0219348
-0.0219389
-0.021443
-0.0214471
-0.0219513
-0.0219554
-0.0219595
-0.0219637
-0.0224678
-0.022472
-0.0224761
-0.0224803
-0.0224845
-0.0229887
-0.0229929
-0.023497
-0.0230012
-0.0235054
-0.0240096
-0.0240138
-0.0245181
-0.0245223
-0.0245265
-0.0245307
-0.0255349
-0.0255392
-0.0260434
-0.0260476
-0.0260519
-0.0265561
-0.0270604
-0.0270646
-0.0270689
-0.0275731
-0.0280774
-0.0280817
-0.0280859
-0.0285902
-0.0280944
-0.0285987
-0.029103
-0.0296073
-0.0291115
-0.0296158
-0.0296201
-0.0296243
-0.0301286
-0.0301329
-0.0301372
-0.0306414
-0.0306457
-0.03065
-0.0311543
-0.0311585
-0.0311628
-0.0306671
-0.0306714
-0.0306756
-0.0311799
-0.0311842
-0.0311885
-0.0306927
-0.031197
-0.0312012
-0.0312055
-0.0312098
-0.031714
-0.0317183
-0.0317225
-0.0312268
-0.031731
-0.0312353
-0.0322395
-0.0312438
-0.031748
-0.0317522
-0.0317565
-0.0317607
-0.0317649
-0.0312691
-0.0317733
-0.0317775
-0.0317817
-0.0317859
-0.0317901
-0.0317943
-0.0317985
-0.0318027
-0.0318069
-0.031811
-0.0318152
-0.0318193
-0.0318235
-0.0318276
-0.0313318
-0.0318359
-0.03134
-0.0308442
-0.0298483
-0.0298524
-0.0278565
-0.0268606
-0.0253647
-0.0238687
-0.0218728
-0.0213769
-0.0203809
-0.020385
-0.019889
-0.018893
-0.0173971
-0.0159011
-0.0139051
-0.0114091
-0.00991307
-0.00891705
-0.00842102
-0.00992498
-0.0119289
-0.0144329
-0.0169368
-0.0199407
-0.0229446
-0.0254485
-0.0274524
-0.0289563
-0.0304602
-0.030964
-0.0314679
-0.0314717
-0.0314756
-0.0314794
-0.0314832
-0.031987
-0.0309908
-0.0314946
-0.0314983
-0.0315021
-0.0320058
-0.0350095
-0.0400132
-0.0495169
-0.0575206
-0.0585243
-0.044528
-0.00753163
0.0639647
0.157961
0.227957
0.266954
0.31145
0.337447
0.305443
0.25844
0.183436
0.0714325
-0.00457096
-0.0250745
-0.0220779
-0.0145814
-0.00858486
-0.00908829
-0.0135917
-0.0185951
-0.0205985
-0.0206019
-0.0206053
-0.0196086
-0.019112
-0.0176153
-0.0176186
-0.0166219
-0.0156252
-0.0146284
-0.0141317
-0.0131349
-0.0121381
-0.0111413
-0.00964451
-0.00864769
-0.00765084
-0.00665398
-0.0046571
-0.00366021
-0.0026633
-0.000166381
0.00133056
0.00282751
0.00432448
0.00682147
0.00831848
0.0108155
0.0128125
0.0153096
0.0178067
0.0208037
0.0233008
0.025798
0.0287951
0.0312922
0.0347894
0.0372866
0.0407838
0.045281
0.0482783
0.0527755
0.0572728
0.0622701
0.0677674
0.0737647
0.080762
0.0877594
0.0942567
0.101254
0.109252
0.115749
0.121246
0.126744
0.130741
0.132739
0.133736
0.132234
0.129231
0.124229
0.117227
0.109224
0.0997217
0.0897194
0.078217
0.0672147
0.0567123
0.04571
0.0362078
0.0267055
0.0187032
0.011201
0.00469879
-0.000303411
-0.00480559
-0.00880776
-0.0118099
-0.014312
-0.0163141
-0.0173162
-0.0188183
-0.0193204
-0.0198224
-0.0213245
-0.0213265
-0.0218285
-0.0223304
-0.0223324
-0.0223343
-0.0223363
-0.0228382
-0.0228401
-0.0228419
-0.0228438
-0.0223456
-0.0223474
-0.0228493
-0.022851
-0.0228528
-0.0228546
-0.0223563
-0.022858
-0.0228597
-0.0228614
-0.0223631
-0.0228647
-0.0228664
-0.022868
-0.0228696
-0.0228712
-0.0233728
-0.0233743
-0.0238759
-0.0233774
-0.0233789
-0.0238804
-0.0238819
-0.0248833
-0.0243848
-0.0248862
-0.0248876
-0.024889
-0.0258903
-0.0253917
-0.0258931
-0.0263944
-0.0263957
-0.026397
-0.0268983
-0.0268995
-0.0269008
-0.027902
-0.0279032
-0.0279044
-0.0284056
-0.0289068
-0.0289079
-0.0294091
-0.0294102
-0.0294113
-0.0294124
-0.0299135
-0.0304145
-0.0299156
-0.0304166
-0.0309176
-0.0309186
-0.0309196
-0.0309206
-0.0309215
-0.0314225
-0.0314234
-0.0314243
-0.0314252
-0.0314261
-0.0314269
-0.0314278
-0.0319286
-0.0319294
-0.0319302
-0.031931
-0.0319318
-0.0319326
-0.0319333
-0.032434
-0.0319348
-0.0319355
-0.0324361
-0.0319368
-0.0319375
-0.0319381
-0.0324388
-0.0324394
-0.03244
-0.0319406
-0.0319411
-0.0324417
-0.0324422
-0.0324428
-0.0324433
-0.0319438
-0.0324443
-0.0324448
-0.0319452
-0.0324457
-0.0324461
-0.0324465
-0.0324469
-0.0324473
-0.0319477
-0.0324481
-0.0324484
-0.0324488
-0.0329491
-0.0319494
-0.0319497
-0.03145
-0.0309503
-0.0299505
-0.0289508
-0.026951
-0.0259512
-0.0239514
-0.0224516
-0.0214518
-0.021452
-0.0209521
-0.0204523
-0.0194524
-0.0179525
-0.0159526
-0.0134527
-0.0119528
-0.00995285
-0.0089529
-0.00995294
-0.010953
-0.012953
-0.015453
-0.018453
-0.020953
-0.0239529
-0.0264529
-0.0284528
-0.0299527
-0.0309527
-0.0319526
-0.0319525
-0.0324523
-0.0324522
-0.0324521
-0.0319519
-0.0319517
-0.0319516
-0.0319514
-0.0319512
-0.0324509
-0.0334507
-0.0379505
-0.0459502
-0.05595
-0.0599497
-0.0514494
-0.0234491
0.0380512
0.129552
0.212052
0.256052
0.298553
0.335553
0.315053
0.269054
0.203554
0.0925544
0.00455487
-0.0244447
-0.0239443
-0.0164438
-0.00994336
-0.00894289
-0.0139424
-0.0189419
-0.0214414
-0.0219409
-0.0214404
-0.0209398
-0.0199393
-0.0189387
-0.0184382
-0.0179376
-0.016937
-0.0164364
-0.0154358
-0.0149352
-0.0139346
-0.012934
-0.0114333
-0.0109327
-0.00943202
-0.00793135
-0.00693067
-0.00542998
-0.00442929
-0.00292858
-0.00142787
7.28553e-005
0.00257359
0.00407433
0.00607508
0.00807584
0.0100766
0.0125774
0.0150782
0.017579
0.0195798
0.0225806
0.0250814
0.0280822
0.031083
0.0335839
0.0370847
0.0400856
0.0445864
0.0490873
0.0530882
0.0580891
0.06309
0.0695909
0.0755918
0.0820927
0.0895936
0.0965946
0.103095
0.110096
0.116097
0.120598
0.124099
0.1266
0.127601
0.126602
0.123103
0.118604
0.111605
0.103606
0.0946072
0.0846082
0.0746093
0.0636103
0.0531113
0.0426124
0.0331134
0.0241144
0.0166155
0.00961656
0.00361762
-0.00188131
-0.00588024
-0.00937916
-0.0123781
-0.014877
-0.0163759
-0.0178748
-0.0188737
-0.0203726
-0.0208715
-0.0213704
-0.0218693
-0.0223682
-0.022367
-0.0228659
-0.0228648
-0.0223636
-0.0228625
-0.0228614
-0.0228602
-0.0233591
-0.0228579
-0.0223568
-0.0228556
-0.0228545
-0.0223533
-0.0228522
-0.022851
-0.0223499
-0.0223487
-0.0228475
-0.0228464
-0.0228452
-0.022844
-0.0228428
-0.0228417
-0.0228405
-0.0233393
-0.0233381
-0.0238369
-0.0233358
-0.0233346
-0.0233334
-0.0238322
-0.023831
-0.0243299
-0.0243287
-0.0248275
-0.0248263
-0.0253251
-0.0253239
-0.0253227
-0.0258216
-0.0258204
-0.0258192
-0.026818
-0.0268168
-0.0268156
-0.0273144
-0.0273133
-0.0278121
-0.0283109
-0.0283097
-0.0288085
-0.0283074
-0.0288062
-0.029305
-0.0298038
-0.0293027
-0.0298015
-0.0293003
-0.0297991
-0.030298
-0.0302968
-0.0307956
-0.0307945
-0.0307933
-0.0312922
-0.031291
-0.0312899
-0.0312887
-0.0312876
-0.0317864
-0.0317853
-0.0312841
-0.031783
-0.0317818
-0.0317807
-0.0317796
-0.0317784
-0.0322773
-0.0317762
-0.0317751
-0.031774
-0.0317728
-0.0322717
-0.0322706
-0.0317695
-0.0322684
-0.0322673
-0.0317662
-0.0322651
-0.032264
-0.032263
-0.0317619
-0.0317608
-0.0317597
-0.0322586
-0.0317576
-0.0322565
-0.0322555
-0.0322544
-0.0322533
-0.0317523
-0.0317513
-0.0317502
-0.0322492
-0.0317482
-0.0317471
-0.0317461
-0.0327451
-0.0317441
-0.0322431
-0.0322421
-0.0317411
-0.0312401
-0.0312391
-0.0302381
-0.0292371
-0.0277361
-0.0267351
-0.0247342
-0.0237332
-0.0222322
-0.0212313
-0.0207303
-0.0202294
-0.0202284
-0.0192275
-0.0177266
-0.0152256
-0.0132247
-0.0112238
-0.0102229
-0.00922199
-0.00922109
-0.0102202
-0.0122193
-0.0147184
-0.0167175
-0.0197166
-0.0227158
-0.0252149
-0.027714
-0.0292132
-0.0307123
-0.0312115
-0.0312106
-0.0322098
-0.031709
-0.0317082
-0.0322073
-0.0317065
-0.0317057
-0.0312049
-0.0312041
-0.0312033
-0.0317025
-0.0337017
-0.036701
-0.0442002
-0.0536994
-0.0591987
-0.0551979
-0.0331971
0.0138036
0.0938043
0.182805
0.239806
0.275307
0.320307
0.334308
0.298309
0.251809
0.17481
0.0653108
-0.00568855
-0.0251879
-0.0226872
-0.0151865
-0.00868586
-0.0086852
-0.0126845
-0.0176839
-0.0201833
-0.0206826
-0.020682
-0.0196814
-0.0196808
-0.0186801
-0.0176795
-0.0171789
-0.0166783
-0.0151777
-0.0146772
-0.0141766
-0.012176
-0.0116754
-0.0106749
-0.0101743
-0.00867377
-0.00717323
-0.00617269
-0.00567216
-0.00367163
-0.00217111
-0.0011706
0.00082991
0.00233041
0.00433091
0.0063314
0.00833189
0.00983236
0.0118328
0.0148333
0.0163338
0.0188342
0.0213347
0.0243351
0.0268355
0.029836
0.0323364
0.0353368
0.0383372
0.0418376
0.045338
0.0493384
0.0528388
0.0573392
0.0618396
0.0673399
0.0728403
0.0793407
0.085341
0.0923414
0.0993417
0.105842
0.112342
0.118843
0.123843
0.128343
0.131344
0.133344
0.133344
0.131844
0.128345
0.123845
0.117345
0.109845
0.100846
0.090846
0.0808462
0.0703464
0.0598467
0.0498469
0.0398471
0.0308473
0.0223475
0.0153477
0.00884785
0.00284802
-0.00165181
-0.00565165
-0.0091515
-0.0116514
-0.0141512
-0.0161511
-0.017151
-0.0186508
-0.0196507
-0.0201506
-0.0206505
-0.0211504
-0.0211504
-0.0216503
-0.0221502
-0.0221502
-0.0221501
-0.0226501
-0.02215
-0.02265
-0.02265
-0.0226499
-0.0226499
-0.0226499
-0.0226499
-0.0226499
-0.02265
-0.02265
-0.02265
-0.0226501
-0.0221501
-0.0221502
-0.0221502
-0.0226503
-0.0226504
-0.0226505
-0.0231505
-0.0226506
-0.0231507
-0.0226509
-0.022651
-0.0231511
-0.0231513
-0.0236514
-0.0236516
-0.0241517
-0.0236519
-0.0241521
-0.0241522
-0.0246524
-0.0246526
-0.0251528
-0.024653
-0.0251533
-0.0256535
-0.0261537
-0.025654
-0.0261542
-0.0266545
-0.0271547
-0.027155
-0.0271553
-0.0276556
-0.0276559
-0.0281562
-0.0286565
-0.0281568
-0.0286571
-0.0291575
-0.0291578
-0.0286582
-0.0291585
-0.0296589
-0.0296593
-0.0296596
-0.03016
-0.0301604
-0.0306608
-0.0306612
-0.0306616
-0.0301621
-0.0311625
-0.0306629
-0.0311634
-0.0311638
-0.0311643
-0.0311648
-0.0306652
-0.0311657
-0.0316662
-0.0316667
-0.0316672
-0.0311677
-0.0316682
-0.0316688
-0.0316693
-0.0316698
-0.0321704
-0.0321709
-0.0321715
-0.032172
-0.0321726
-0.0316732
-0.0321738
-0.0316744
-0.031675
-0.0316756
-0.0321762
-0.0321768
-0.0321774
-0.0321781
-0.0321787
-0.0316794
-0.03218
-0.0321807
-0.0321813
-0.031682
-0.0321827
-0.0316834
-0.0321841
-0.0321848
-0.0321855
-0.0321862
-0.0326869
-0.0316876
-0.0316883
-0.0316891
-0.0321898
-0.0316906
-0.0321913
-0.0321921
-0.0311928
-0.0306936
-0.0301944
-0.0291951
-0.0281959
-0.0271967
-0.0256975
-0.0241983
-0.0226991
-0.0216999
-0.0207007
-0.0207016
-0.0202024
-0.0197032
-0.0187041
-0.0172049
-0.0147057
-0.0132066
-0.0112074
-0.0102083
-0.00870917
-0.00921004
-0.0102109
-0.0122118
-0.0147127
-0.0167136
-0.0197144
-0.0227153
-0.0247162
-0.0272171
-0.029218
-0.0302189
-0.0307199
-0.0312208
-0.0317217
-0.0317226
-0.0322236
-0.0317245
-0.0317254
-0.0317264
-0.0317273
-0.0322282
-0.0317292
-0.0312301
-0.0317311
-0.0337321
-0.037233
-0.044234
-0.0532349
-0.0592359
-0.0567369
-0.0402379
-0.00173884
0.0677602
0.154759
0.223258
0.260257
0.300256
0.334755
0.320754
0.278753
0.227252
0.135251
0.0367503
-0.0152507
-0.0257517
-0.0217528
-0.0142538
-0.00975477
-0.00975579
-0.0137568
-0.0187578
-0.0207588
-0.0217599
-0.0212609
-0.0207619
-0.0202629
-0.0192639
-0.019265
-0.017766
-0.017267
-0.016768
-0.0162691
-0.0157701
-0.0142711
-0.0137722
-0.0127732
-0.0112742
-0.0107753
-0.0097763
-0.00877733
-0.00727836
-0.0067794
-0.00528044
-0.00378147
-0.00228251
-0.000783546
0.000715417
0.00171438
0.00371334
0.0057123
0.00721127
0.00921023
0.0117092
0.0132082
0.0157071
0.0182061
0.020205
0.022704
0.025203
0.0277019
0.0302009
0.0331999
0.0361988
0.0391978
0.0426968
0.0461957
0.0501947
0.0551936
0.0591926
0.0646916
0.0701906
0.0761895
0.0821885
0.0881875
0.0946864
0.101185
0.108184
0.113683
0.118682
0.122681
0.12568
0.127679
0.127678
0.126177
0.123676
0.119175
0.113174
0.105673
0.0976721
0.0886711
0.0791701
0.0691691
0.0591681
0.049667
0.040166
0.031665
0.023164
0.016663
0.00916201
0.00416101
-0.000839997
-0.005341
-0.008342
-0.011843
-0.013344
-0.015845
-0.017846
-0.018347
-0.019348
-0.020349
-0.02085
-0.021351
-0.0218519
-0.0223529
-0.0228539
-0.0228549
-0.0223559
-0.0233569
-0.0228578
-0.0228588
-0.0233598
-0.0233608
-0.0233617
-0.0233627
-0.0228637
-0.0228647
-0.0233656
-0.0233666
-0.0228676
-0.0228685
-0.0223695
-0.0228705
-0.0228714
-0.0228724
-0.0233733
-0.0223743
-0.0228753
-0.0228762
-0.0228772
-0.0228781
-0.0228791
-0.02338
-0.023381
-0.0233819
-0.0233828
-0.0238838
-0.0243847
-0.0243857
-0.0243866
-0.0243875
-0.0248885
-0.0248894
-0.0253903
-0.0258913
-0.0253922
-0.0258931
-0.0258941
-0.026395
-0.0263959
-0.0263968
-0.0268977
-0.0273987
-0.0278996
-0.0274005
-0.0279014
-0.0279023
-0.0284032
-0.0284041
-0.028405
-0.0294059
-0.0294069
-0.0294078
-0.0294087
-0.0294095
-0.0299104
-0.0299113
-0.0304122
-0.0304131
-0.030914
-0.0304149
-0.0309158
-0.0309167
-0.0314175
-0.0314184
-0.0309193
-0.0309202
-0.0309211
-0.0314219
-0.0319228
-0.0319237
-0.0314245
-0.0319254
-0.0319263
-0.0314271
-0.031928
-0.0319288
-0.0324297
-0.0319305
-0.0319314
-0.0324322
-0.0319331
-0.0319339
-0.0319347
-0.0324356
-0.0319364
-0.0324372
-0.0319381
-0.0324389
-0.0324397
-0.0324405
-0.0324414
-0.0324422
-0.032443
-0.0324438
-0.0329446
-0.0324454
-0.0324462
-0.032447
-0.0324478
-0.0324486
-0.0324494
-0.0324502
-0.031951
-0.0324518
-0.0324525
-0.0324533
-0.0324541
-0.0324549
-0.0324556
-0.0324564
-0.0324571
-0.0329579
-0.0314587
-0.0319594
-0.0309602
-0.0304609
-0.0299616
-0.0289624
-0.0279631
-0.0259638
-0.0249646
-0.0234653
-0.021966
-0.0214667
-0.0214674
-0.0209681
-0.0199688
-0.0194695
-0.0184702
-0.0159709
-0.0139716
-0.0119723
-0.010973
-0.00947364
-0.00997431
-0.00997497
-0.0114756
-0.0134763
-0.0159769
-0.0189776
-0.0214782
-0.0239789
-0.0264795
-0.0289801
-0.0299808
-0.0309814
-0.031482
-0.0314826
-0.0319832
-0.0319838
-0.0319844
-0.032485
-0.0324856
-0.0319862
-0.0319868
-0.0314873
-0.0319879
-0.0319884
-0.033489
-0.0364896
-0.0424901
-0.0509906
-0.0589912
-0.0589917
-0.0454922
-0.0129927
0.0500067
0.136506
0.212006
0.254505
0.292005
0.332004
0.328004
0.287003
0.239003
0.153002
0.0490019
-0.0109985
-0.025999
-0.0224994
-0.0154998
-0.00900027
-0.00850069
-0.0125011
-0.0180015
-0.0205019
-0.0210023
-0.0210027
-0.0200031
-0.0200035
-0.0190038
-0.0185042
-0.0175046
-0.0165049
-0.0160053
-0.0150056
-0.0145059
-0.0135063
-0.0125066
-0.0115069
-0.0105072
-0.0100075
-0.00850782
-0.00750811
-0.00600839
-0.00450867
-0.00350894
-0.00200921
-9.46651e-006
0.000990281
0.00299003
0.0044898
0.00648956
0.00798933
0.00998911
0.0119889
0.0144887
0.0169885
0.0189883
0.0214881
0.0239879
0.0264877
0.0294876
0.0319874
0.0349873
0.0379871
0.041487
0.0444868
0.0484867
0.0524866
0.0564865
0.0614863
0.0664862
0.0719861
0.078486
0.084486
0.0909859
0.0979858
0.104486
0.110986
0.116986
0.122986
0.127486
0.130985
0.133485
0.133985
0.132485
0.129985
0.125485
0.119485
0.111985
0.103985
0.0944854
0.0844854
0.0739854
0.0634855
0.0529855
0.0434856
0.0339856
0.0249857
0.0179857
0.0109858
0.00498585
-1.40709e-005
-0.00451399
-0.0085139
-0.0110138
-0.0135137
-0.0155136
-0.0165135
-0.0180134
-0.0195133
-0.0205131
-0.021013
-0.0210129
-0.0215128
-0.0220126
-0.0220125
-0.0225123
-0.0230122
-0.022512
-0.0230118
-0.0230117
-0.0235115
-0.0225113
-0.0230111
-0.0230109
-0.0225107
-0.0235105
-0.0230103
-0.0230101
-0.0225099
-0.0230097
-0.0225095
-0.0230093
-0.022509
-0.0235088
-0.0230086
-0.0230084
-0.0230081
-0.0235079
-0.0230076
-0.0230074
-0.0235071
-0.0235069
-0.0235066
-0.0235063
-0.0240061
-0.0245058
-0.0240055
-0.0245052
-0.024505
-0.0245047
-0.0250044
-0.0255041
-0.0255038
-0.0260035
-0.0260032
-0.0265029
-0.0265026
-0.0265023
-0.027002
-0.0270017
-0.0270014
-0.0275011
-0.0275007
-0.0280004
-0.0280001
-0.0284998
-0.0289994
-0.0289991
-0.0289988
-0.0294984
-0.0294981
-0.0299978
-0.0299974
-0.0304971
-0.0304967
-0.0304964
-0.0304961
-0.0309957
-0.0309954
-0.030995
-0.0314946
-0.0314943
-0.0314939
-0.0314936
-0.0314932
-0.0314929
-0.0314925
-0.0314921
-0.0314918
-0.0319914
-0.031991
-0.0324907
-0.0319903
-0.0324899
-0.0324895
-0.0324892
-0.0319888
-0.0324884
-0.0319881
-0.0324877
-0.0319873
-0.0324869
-0.0319865
-0.0324862
-0.0319858
-0.0324854
-0.032485
-0.0319846
-0.0319843
-0.0319839
-0.0324835
-0.0319831
-0.0324827
-0.0324823
-0.0324819
-0.0324816
-0.0324812
-0.0324808
-0.0324804
-0.03248
-0.0329796
-0.0329792
-0.0324789
-0.0324785
-0.0324781
-0.0324777
-0.0319773
-0.0324769
-0.0324765
-0.0319761
-0.0314757
-0.0314754
-0.030475
-0.0299746
-0.0289742
-0.0274738
-0.0259734
-0.023973
-0.0229726
-0.0219723
-0.0214719
-0.0209715
-0.0204711
-0.0194707
-0.0189703
-0.0174699
-0.0149695
-0.0129692
-0.0109688
-0.00946839
-0.00946801
-0.00946762
-0.0114672
-0.0134669
-0.0154665
-0.0179661
-0.0214657
-0.0239653
-0.0264649
-0.0289646
-0.0299642
-0.0309638
-0.0314634
-0.031963
-0.0324627
-0.0319623
-0.0319619
-0.0319615
-0.0319612
-0.0324608
-0.0324604
-0.03196
-0.0324597
-0.0324593
-0.0334589
-0.0379586
-0.0454582
-0.0549578
-0.0599574
-0.0549571
-0.0334567
0.0140437
0.094044
0.182044
0.239045
0.274545
0.319545
0.335546
0.301546
0.256047
0.180547
0.0725473
-0.00245237
-0.025452
-0.0244517
-0.0164513
-0.00995095
-0.0089506
-0.0129502
-0.0184499
-0.0214495
-0.0219492
-0.0219488
-0.0209485
-0.0204482
-0.0199478
-0.0189475
-0.0179471
-0.0179468
-0.0169464
-0.0159461
-0.0154458
-0.0144454
-0.0139451
-0.0124448
-0.0119444
-0.0104441
-0.00994377
-0.00844344
-0.00694311
-0.00644278
-0.00444246
-0.00344214
-0.00144181
-0.000441492
0.00205883
0.00305915
0.00505946
0.00705978
0.00956009
0.0115604
0.0130607
0.015561
0.0185613
0.0200616
0.0230619
0.0255622
0.0285626
0.0310629
0.0335631
0.0370634
0.0405637
0.044064
0.0480643
0.0520646
0.0570649
0.0625652
0.0675655
0.0735658
0.080066
0.0865663
0.0935666
0.100067
0.106567
0.112567
0.118068
0.122568
0.125568
0.127568
0.127569
0.126069
0.123069
0.118069
0.11207
0.10407
0.0955702
0.0855705
0.0750707
0.065571
0.0545712
0.0450714
0.0355717
0.0265719
0.0190721
0.0115723
0.00607255
0.00057277
-0.00392702
-0.0084268
-0.0114266
-0.0139264
-0.0159262
-0.017426
-0.0189258
-0.0194256
-0.0204254
-0.0209252
-0.021425
-0.0219248
-0.0224247
-0.0224245
-0.0224243
-0.0229242
-0.023424
-0.0229238
-0.0229237
-0.0229235
-0.0234234
-0.0229232
-0.0229231
-0.0234229
-0.0229228
-0.0229227
-0.0234225
-0.0229224
-0.0229223
-0.0229222
-0.023422
-0.0234219
-0.0229218
-0.0229217
-0.0224216
-0.0229215
-0.0229214
-0.0229213
-0.0234213
-0.0234212
-0.0234211
-0.023421
-0.023421
-0.0239209
-0.0239208
-0.0239208
-0.0244207
-0.0249207
-0.0244207
-0.0249206
-0.0249206
-0.0259206
-0.0259205
-0.0259205
-0.0259205
-0.0264205
-0.0269205
-0.0274205
-0.0269205
-0.0274205
-0.0274205
-0.0279205
-0.0279205
-0.0284206
-0.0284206
-0.0289206
-0.0289207
-0.0289207
-0.0289208
-0.0294208
-0.0294209
-0.0299209
-0.029921
-0.0299211
-0.0304211
-0.0309212
-0.0309213
-0.0314214
-0.0309215
-0.0309216
-0.0314217
-0.0309218
-0.0314219
-0.031422
-0.0319222
-0.0314223
-0.0314224
-0.0314226
-0.0319227
-0.0319229
-0.031923
-0.0319232
-0.0324233
-0.0324235
-0.0319237
-0.0324238
-0.032424
-0.0324242
-0.0319244
-0.0324246
-0.0319248
-0.031925
-0.0324252
-0.0324254
-0.0319257
-0.0324259
-0.0324261
-0.0324263
-0.0324266
-0.0324268
-0.0324271
-0.0324273
-0.0319276
-0.0324278
-0.0324281
-0.0324284
-0.0324286
-0.0324289
-0.0324292
-0.0324295
-0.0324298
-0.0324301
-0.0324304
-0.0319307
-0.032431
-0.0319313
-0.0324316
-0.0319319
-0.0314323
-0.0314326
-0.0309329
-0.0289333
-0.0284336
-0.0269339
-0.0249343
-0.0234346
-0.021935
-0.0219354
-0.0214357
-0.0209361
-0.0204365
-0.0189369
-0.0179372
-0.0159376
-0.014438
-0.0119384
-0.0104388
-0.00943919
-0.00943959
-0.00994
-0.0119404
-0.0144408
-0.0174412
-0.0199417
-0.0224421
-0.0254425
-0.0274429
-0.0294434
-0.0304438
-0.0314442
-0.0319447
-0.0319451
-0.0319456
-0.032446
-0.0324465
-0.0324469
-0.0319474
-0.0319478
-0.0319483
-0.0319488
-0.0314493
-0.0324497
-0.0354502
-0.0419507
-0.0504512
-0.0579516
-0.0589521
-0.0454526
-0.0104531
0.0560464
0.146046
0.220045
0.259545
0.301044
0.336044
0.318543
0.274543
0.217042
0.115542
0.0205414
-0.0209591
-0.0254597
-0.0194602
-0.0119607
-0.00846122
-0.0109617
-0.0154623
-0.0199628
-0.0209633
-0.0209639
-0.0199644
-0.0199649
-0.0189655
-0.018966
-0.0179665
-0.0169671
-0.0159676
-0.0159682
-0.0144687
-0.0134692
-0.0124698
-0.0119703
-0.0104709
-0.00947142
-0.00797197
-0.00747252
-0.00597308
-0.00447363
-0.00347418
-0.00197474
2.47087e-005
0.00152415
0.0030236
0.00502304
0.00702248
0.00902192
0.0110214
0.0135208
0.0155202
0.0180197
0.0200191
0.0230185
0.025018
0.0280174
0.0310169
0.0335163
0.0370157
0.0405152
0.0435146
0.047014
0.0510135
0.0555129
0.0600123
0.0655117
0.0710112
0.0775106
0.08351
0.0900095
0.0975089
0.104008
0.111008
0.117007
0.122507
0.127506
0.131005
0.133505
0.133504
0.132504
0.129003
0.124503
0.118002
0.110501
0.101501
0.0920003
0.0809997
0.0704991
0.0599986
0.049498
0.0399974
0.0304968
0.0219963
0.0149957
0.00799511
0.00199453
-0.00250604
-0.00650662
-0.0100072
-0.0125078
-0.0145083
-0.0165089
-0.0175095
-0.0190101
-0.0205107
-0.0205112
-0.0215118
-0.0215124
-0.022013
-0.0220135
-0.0225141
-0.0225147
-0.0230153
-0.0230159
-0.0230164
-0.023017
-0.0230176
-0.0235182
-0.0230187
-0.0230193
-0.0230199
-0.0235205
-0.0230211
-0.0230216
-0.0230222
-0.0230228
-0.0230234
-0.023024
-0.0225245
-0.0225251
-0.0230257
-0.0230263
-0.0235269
-0.0230274
-0.023028
-0.0235286
-0.0230292
-0.0240298
-0.0240303
-0.0235309
-0.0245315
-0.0240321
-0.0245327
-0.0250332
-0.0245338
-0.0245344
-0.025535
-0.0255356
-0.0260361
-0.0255367
-0.0260373
-0.0265379
-0.0265385
-0.026539
-0.0270396
-0.0280402
-0.0275408
-0.0285414
-0.0280419
-0.0285425
-0.0290431
-0.0290437
-0.0290443
-0.0295448
-0.0295454
-0.029546
-0.0300466
-0.0305472
-0.0300477
-0.0310483
-0.0305489
-0.0305495
-0.03055
-0.0310506
-0.0315512
-0.0315518
-0.0310524
-0.0315529
-0.0315535
-0.0310541
-0.0315547
-0.0320552
-0.0315558
-0.0320564
-0.0320569
-0.0325575
-0.0320581
-0.0320587
-0.0320592
-0.0320598
-0.0320604
-0.0325609
-0.0325615
-0.0320621
-0.0325626
-0.0325632
-0.0325638
-0.0325643
-0.0325649
-0.0325654
-0.032566
-0.0325666
-0.0325671
-0.0325677
-0.0325682
-0.0320688
-0.0325693
-0.0325699
-0.0325704
-0.032571
-0.0330715
-0.0325721
-0.0325726
-0.0325732
-0.0325737
-0.0325742
-0.0325748
-0.0325753
-0.0325759
-0.0320764
-0.0320769
-0.0320775
-0.032578
-0.0320785
-0.031079
-0.0305796
-0.0295801
-0.0285806
-0.0270811
-0.0260816
-0.0245821
-0.0225827
-0.0220832
-0.0210837
-0.0210842
-0.0205847
-0.0195852
-0.0180857
-0.0165862
-0.0145867
-0.0125871
-0.0110876
-0.00958811
-0.0100886
-0.0105891
-0.0115896
-0.01409
-0.0170905
-0.019591
-0.0220914
-0.0255919
-0.0275923
-0.0290928
-0.0310933
-0.0310937
-0.0315942
-0.0325946
-0.032595
-0.0325955
-0.0325959
-0.0325963
-0.0320968
-0.0320972
-0.0320976
-0.032098
-0.0320984
-0.0335988
-0.0365992
-0.0430996
-0.0521
-0.0596004
-0.0581008
-0.0401012
0.00189841
0.078398
0.169898
0.233897
0.270397
0.315397
0.336396
0.302896
0.256396
0.181895
0.0718948
-0.00410552
-0.0256058
-0.0236062
-0.0161065
-0.00960682
-0.00910713
-0.0141074
-0.0196077
-0.021608
-0.0216083
-0.0216086
-0.0206089
-0.0206092
-0.0196095
-0.0191098
-0.01811
-0.0176103
-0.0166105
-0.0161108
-0.015111
-0.0136113
-0.0136115
-0.0121118
-0.011612
-0.0101122
-0.00911244
-0.00761265
-0.00661286
-0.00561307
-0.00361327
-0.00261346
-0.000613651
0.000886164
0.00238598
0.00438581
0.00638564
0.00888548
0.0103853
0.0128852
0.015385
0.0173849
0.0198847
0.0228846
0.0253845
0.0278843
0.0303842
0.0343841
0.036884
0.0408839
0.0443838
0.0483837
0.0528836
0.0578835
0.0628835
0.0688834
0.0748833
0.0813833
0.0878832
0.0953832
0.101883
0.108383
0.114883
0.119883
0.123883
0.126883
0.127383
0.126383
0.123883
0.120383
0.114383
0.106883
0.098383
0.088883
0.078383
0.067883
0.0568831
0.0473831
0.0368831
0.0278832
0.0198832
0.0118833
0.00638336
0.000883428
-0.0041165
-0.00811642
-0.0116163
-0.0141163
-0.0156162
-0.0176161
-0.019116
-0.0201159
-0.0206158
-0.0216156
-0.0221155
-0.0226154
-0.0226153
-0.0226151
-0.022615
-0.0231149
-0.0231147
-0.0231146
-0.0236144
-0.0231143
-0.0236141
-0.0236139
-0.0236138
-0.0231136
-0.0236134
-0.0231132
-0.023613
-0.0231129
-0.0226127
-0.0231125
-0.0231123
-0.0231121
-0.0231119
-0.0231116
-0.0236114
-0.0231112
-0.023111
-0.0236107
-0.0236105
-0.0241103
-0.02361
-0.0236098
-0.0241096
-0.0241093
-0.0246091
-0.0246088
-0.0251085
-0.0251083
-0.025108
-0.0256077
-0.0261075
-0.0261072
-0.0266069
-0.0266066
-0.0271063
-0.027106
-0.0266058
-0.0276055
-0.0281052
-0.0276049
-0.0286046
-0.0281042
-0.0286039
-0.0291036
-0.0291033
-0.029103
-0.0296027
-0.0301023
-0.029602
-0.0301017
-0.0301013
-0.030601
-0.0311007
-0.0306003
-0.0306
-0.0310996
-0.0310993
-0.0315989
-0.0315986
-0.0315982
-0.0315978
-0.0320975
-0.0320971
-0.0320967
-0.0315964
-0.032096
-0.0320956
-0.0320952
-0.0320948
-0.0320944
-0.0320941
-0.0320937
-0.0320933
-0.0320929
-0.0320925
-0.0325921
-0.0320917
-0.0325913
-0.0325909
-0.0320905
-0.03209
-0.0325896
-0.0325892
-0.0325888
-0.0325884
-0.0325879
-0.0325875
-0.0325871
-0.0325866
-0.0325862
-0.0325858
-0.0325853
-0.0325849
-0.0325844
-0.032584
-0.0325835
-0.0325831
-0.0330826
-0.0320822
-0.0330817
-0.0325813
-0.0325808
-0.0320803
-0.0320799
-0.0310794
-0.0305789
-0.0300784
-0.028578
-0.0270775
-0.025577
-0.0240765
-0.022576
-0.0215755
-0.021575
-0.0205745
-0.020574
-0.0195735
-0.018073
-0.0155725
-0.013572
-0.0115715
-0.010571
-0.00957048
-0.01007
-0.0110694
-0.0130689
-0.0155684
-0.0180679
-0.0215673
-0.0245668
-0.0270663
-0.0295657
-0.0300652
-0.0310646
-0.0320641
-0.0320635
-0.032563
-0.0320624
-0.0320619
-0.0320613
-0.0320607
-0.0320602
-0.0315596
-0.032059
-0.0325585
-0.0345579
-0.0385573
-0.0475567
-0.0565561
-0.0600556
-0.050055
-0.0180544
0.0474462
0.141947
0.220447
0.261448
0.306449
0.337449
0.30895
0.26145
0.187451
0.0729517
-0.00504765
-0.026047
-0.0220464
-0.0140458
-0.00854512
-0.0100445
-0.0145438
-0.0200432
-0.0210425
-0.0210419
-0.0205412
-0.0195406
-0.0190399
-0.0185393
-0.0175386
-0.0165379
-0.0160373
-0.0155366
-0.0145359
-0.0130352
-0.0120345
-0.0110338
-0.00953316
-0.00903247
-0.00753177
-0.00603107
-0.00503037
-0.00302967
-0.00202896
-2.82498e-005
0.00147246
0.00347318
0.0054739
0.00747462
0.00947535
0.0119761
0.0144768
0.0169775
0.0189783
0.021979
0.0244798
0.0274805
0.0304812
0.033482
0.0369828
0.0404835
0.0439843
0.047485
0.0524858
0.0569866
0.0619873
0.0674881
0.0739889
0.0804897
0.0869904
0.0944912
0.102492
0.109493
0.116494
0.121994
0.126995
0.131496
0.132497
0.133998
0.131998
0.128499
0.1225
0.115501
0.106002
0.0965025
0.0860033
0.0745041
0.0630049
0.0520058
0.0415066
0.0315074
0.0225083
0.0145091
0.00750995
0.0020108
-0.00298836
-0.00698751
-0.0109867
-0.0129858
-0.015985
-0.0174841
-0.0184832
-0.0194824
-0.0204815
-0.0214807
-0.0214798
-0.0214789
-0.0224781
-0.0224772
-0.0224763
-0.0224754
-0.0224746
-0.0229737
-0.0229728
-0.0234719
-0.0234711
-0.0229702
-0.0234693
-0.0229684
-0.0229675
-0.0234666
-0.0229657
-0.0224648
-0.0229639
-0.022963
-0.0224621
-0.0224613
-0.0229604
-0.0229595
-0.0229585
-0.0234576
-0.0234567
-0.0234558
-0.0234549
-0.023454
-0.0234531
-0.0244522
-0.0244513
-0.0244504
-0.0244495
-0.0244485
-0.0254476
-0.0254467
-0.0254458
-0.0259449
-0.026444
-0.026443
-0.0269421
-0.0274412
-0.0264403
-0.0274394
-0.0279384
-0.0279375
-0.0279366
-0.0284357
-0.0289347
-0.0284338
-0.0289329
-0.029432
-0.029431
-0.0294301
-0.0299292
-0.0299282
-0.0304273
-0.0304264
-0.0304254
-0.0309245
-0.0304236
-0.0309226
-0.0314217
-0.0314208
-0.0314198
-0.0314189
-0.031418
-0.031417
-0.0319161
-0.0319152
-0.0319142
-0.0319133
-0.0319123
-0.0319114
-0.0319105
-0.0319095
-0.0319086
-0.0319076
-0.0324067
-0.0319058
-0.0324048
-0.0319039
-0.0324029
-0.032402
-0.0319011
-0.0319001
-0.0323992
-0.0323982
-0.0318973
-0.0318964
-0.0318954
-0.0323945
-0.0318935
-0.0318926
-0.0318916
-0.0323907
-0.0318898
-0.0328888
-0.0323879
-0.0323869
-0.032386
-0.032385
-0.0323841
-0.0323831
-0.0323822
-0.0318812
-0.0323803
-0.0318794
-0.0313784
-0.0308775
-0.0293765
-0.0283756
-0.0263746
-0.0253737
-0.0233727
-0.0218718
-0.0213708
-0.0208699
-0.0203689
-0.019868
-0.018367
-0.0168661
-0.0148651
-0.0123642
-0.0108632
-0.00986227
-0.00936131
-0.0103604
-0.0118594
-0.0143585
-0.0173575
-0.0203565
-0.0238556
-0.0258546
-0.0283537
-0.0298527
-0.0308518
-0.0313508
-0.0318499
-0.0323489
-0.0318479
-0.032347
-0.032346
-0.0318451
-0.0318441
-0.0318431
-0.0313422
-0.0318412
-0.0343403
-0.0388393
-0.0478383
-0.0573374
-0.0593364
-0.0463354
-0.00983447
0.0636665
0.160667
0.231168
0.270669
0.31767
0.334671
0.294672
0.244173
0.151174
0.0386752
-0.0173238
-0.0263228
-0.0193219
-0.0123209
-0.00881992
-0.0118189
-0.017818
-0.021317
-0.021816
-0.021315
-0.0203141
-0.0198131
-0.0198121
-0.0188111
-0.0178101
-0.0173092
-0.0158082
-0.0153072
-0.0148062
-0.0133052
-0.0128042
-0.0118033
-0.0103023
-0.00930129
-0.0083003
-0.00679931
-0.00529832
-0.00379733
-0.00229635
-0.000795356
0.00120563
0.00320662
0.00470762
0.00720861
0.0092096
0.0117106
0.0137116
0.0162126
0.0192136
0.0212146
0.0237156
0.0272166
0.0297176
0.0327185
0.0362195
0.0392205
0.0432215
0.0472225
0.0522235
0.0572245
0.0627255
0.0687265
0.0747275
0.0817285
0.0887295
0.0957305
0.102732
0.109733
0.115734
0.120735
0.124736
0.127237
0.127738
0.126239
0.12324
0.117241
0.110242
0.102243
0.0922435
0.0822445
0.0707455
0.0602465
0.0487475
0.0392485
0.0297495
0.0207505
0.0127515
0.00625252
0.000253518
-0.00374549
-0.00774449
-0.0112435
-0.0137425
-0.0162415
-0.0172405
-0.0187395
-0.0197385
-0.0207375
-0.0207365
-0.0217355
-0.0222346
-0.0222336
-0.0227326
-0.0227316
-0.0232306
-0.0227296
-0.0232286
-0.0227277
-0.0227267
-0.0227257
-0.0232247
-0.0232237
-0.0227228
-0.0227218
-0.0227208
-0.0227198
-0.0227189
-0.0227179
-0.0227169
-0.0227159
-0.023215
-0.022714
-0.022213
-0.0227121
-0.0232111
-0.0227102
-0.0232092
-0.0232082
-0.0232073
-0.0237063
-0.0232054
-0.0242044
-0.0242035
-0.0242025
-0.0247016
-0.0242007
-0.0246997
-0.0251988
-0.0256978
-0.0256969
-0.026196
-0.026195
-0.0261941
-0.0266932
-0.0266923
-0.0271913
-0.0276904
-0.0276895
-0.0281886
-0.0281877
-0.0286868
-0.0291859
-0.029185
-0.029184
-0.0291831
-0.0296822
-0.0291813
-0.0296805
-0.0301796
-0.0301787
-0.0301778
-0.0301769
-0.030176
-0.0301751
-0.0306743
-0.0311734
-0.0311725
-0.0306716
-0.0311708
-0.0306699
-0.031669
-0.0311682
-0.0316673
-0.0316665
-0.0316656
-0.0311648
-0.0316639
-0.0316631
-0.0316622
-0.0321614
-0.0316606
-0.0316597
-0.0316589
-0.0316581
-0.0316572
-0.0316564
-0.0316556
-0.0316548
-0.032154
-0.0316531
-0.0321523
-0.0321515
-0.0316507
-0.0316499
-0.0321491
-0.0321483
-0.0321475
-0.0321467
-0.0321459
-0.0321451
-0.0316444
-0.0321436
-0.0321428
-0.032142
-0.0321413
-0.0316405
-0.0321397
-0.0321389
-0.0316382
-0.0316374
-0.0316367
-0.0306359
-0.0301352
-0.0291344
-0.0281337
-0.0261329
-0.0251322
-0.0231314
-0.0216307
-0.02113
-0.0211292
-0.0206285
-0.0196278
-0.018627
-0.0171263
-0.0151256
-0.0131249
-0.0111242
-0.0101234
-0.00912272
-0.00962201
-0.0106213
-0.0131206
-0.0156199
-0.0181192
-0.0211185
-0.0241178
-0.0266171
-0.0281164
-0.0296157
-0.030615
-0.0311143
-0.0316137
-0.031613
-0.0316123
-0.0316116
-0.0316109
-0.0316103
-0.0316096
-0.0316089
-0.0316083
-0.0316076
-0.0331069
-0.0371063
-0.0451056
-0.0546049
-0.0591043
-0.0531036
-0.028603
0.0253977
0.111898
0.199399
0.2489
0.2874
0.330401
0.325902
0.281902
0.227903
0.128903
0.0264041
-0.0195953
-0.0250946
-0.018594
-0.0110934
-0.00809276
-0.0105921
-0.0160915
-0.0195909
-0.0205903
-0.0210896
-0.020089
-0.0190884
-0.0185878
-0.0180872
-0.0175866
-0.016086
-0.0150854
-0.0145847
-0.0135841
-0.0130835
-0.0120829
-0.0105823
-0.0100817
-0.00908113
-0.00758053
-0.00607994
-0.00457934
-0.00357875
-0.00207816
-7.75662e-005
0.000923023
0.00292361
0.0049242
0.00692478
0.00892537
0.0109259
0.0134265
0.0154271
0.0174277
0.0204283
0.0234288
0.0259294
0.02843
0.0314306
0.0344311
0.0374317
0.0409323
0.0439328
0.0479334
0.0519339
0.0564345
0.0614351
0.0669356
0.0724362
0.0789367
0.0854373
0.0919378
0.0994384
0.105939
0.112939
0.11894
0.124441
0.129441
0.131942
0.133442
0.132943
0.130943
0.127444
0.122444
0.115445
0.106945
0.0969459
0.0864464
0.075947
0.0654475
0.054948
0.0449485
0.034949
0.0259495
0.01795
0.0109505
0.00445105
0.000451554
-0.00404795
-0.00804745
-0.011047
-0.0135465
-0.015546
-0.0170455
-0.018045
-0.0190445
-0.020044
-0.0205435
-0.0210431
-0.0210426
-0.0215421
-0.0220417
-0.0220412
-0.0225407
-0.0220403
-0.0220398
-0.0225394
-0.0225389
-0.0225385
-0.023038
-0.0225376
-0.0225371
-0.0230367
-0.0220362
-0.0220358
-0.0225354
-0.022535
-0.0225345
-0.0225341
-0.0225337
-0.0220333
-0.0225329
-0.0225325
-0.0225321
-0.0225317
-0.0225313
-0.0230309
-0.0235305
-0.0235301
-0.0230297
-0.0235294
-0.023529
-0.0235286
-0.0235283
-0.0240279
-0.0245275
-0.0245272
-0.0245268
-0.0250265
-0.0255262
-0.0255258
-0.0255255
-0.0260251
-0.0260248
-0.0265245
-0.0265242
-0.0270239
-0.0270236
-0.0275233
-0.027523
-0.0280227
-0.0280224
-0.0285221
-0.0285218
-0.0285215
-0.0290212
-0.029021
-0.0295207
-0.0295204
-0.0295202
-0.0300199
-0.0305197
-0.0300194
-0.0305192
-0.030519
-0.0305187
-0.0305185
-0.0310183
-0.0310181
-0.0310179
-0.0305177
-0.0315175
-0.0310173
-0.0310171
-0.0310169
-0.0310167
-0.0320165
-0.0310164
-0.0315162
-0.031516
-0.0320159
-0.0315157
-0.0315156
-0.0320154
-0.0315153
-0.0315152
-0.032015
-0.0315149
-0.0315148
-0.0320147
-0.0320146
-0.0320145
-0.0320144
-0.0320143
-0.0315142
-0.0320141
-0.0320141
-0.031514
-0.0315139
-0.0320139
-0.0315138
-0.0315138
-0.0325137
-0.0320137
-0.0315136
-0.0320136
-0.0320136
-0.0320136
-0.0320135
-0.0320135
-0.0320135
-0.0320135
-0.0315135
-0.0320136
-0.0315136
-0.0310136
-0.0310136
-0.0295137
-0.0290137
-0.0275137
-0.0265138
-0.0250138
-0.0235139
-0.022014
-0.021014
-0.0205141
-0.0200142
-0.0200143
-0.0190144
-0.0175144
-0.0155145
-0.0140147
-0.0120148
-0.0105149
-0.009015
-0.00901512
-0.00951525
-0.0110154
-0.0130155
-0.0160157
-0.0185158
-0.021516
-0.0240161
-0.0265163
-0.0285165
-0.0295167
-0.0305168
-0.031017
-0.0310172
-0.0315174
-0.0320176
-0.0315178
-0.031518
-0.0320182
-0.0320185
-0.0315187
-0.0310189
-0.0315191
-0.0315194
-0.0340196
-0.0385199
-0.0465201
-0.0555204
-0.0595207
-0.0525209
-0.0285212
0.0239785
0.105978
0.191478
0.243478
0.278977
0.322977
0.333477
0.295976
0.249976
0.171976
0.0644755
-0.00552484
-0.0255252
-0.0230255
-0.0155259
-0.00952621
-0.00902656
-0.0130269
-0.0180273
-0.0205276
-0.021528
-0.0210284
-0.0200288
-0.0200292
-0.0190295
-0.0180299
-0.0180303
-0.0170307
-0.0165311
-0.0155316
-0.015032
-0.0140324
-0.0135328
-0.0125332
-0.0110337
-0.0105341
-0.00953455
-0.008035
-0.00703545
-0.00553591
-0.00403637
-0.00303683
-0.0015373
-3.77707e-005
0.00146175
0.00346127
0.00546078
0.00646029
0.0094598
0.0109593
0.0129588
0.0154583
0.0174578
0.0199573
0.0229567
0.0249562
0.0279557
0.0304552
0.0334546
0.0369541
0.0394535
0.043453
0.0469524
0.0504519
0.0554513
0.0599507
0.0654502
0.0709496
0.076949
0.0834484
0.0904478
0.0969472
0.103947
0.109946
0.115445
0.120445
0.123944
0.126944
0.127943
0.127442
0.124942
0.120941
0.11594
0.10894
0.100439
0.0919384
0.0824378
0.0719371
0.0624365
0.0519358
0.0424351
0.0329344
0.0244337
0.017433
0.0104323
0.00493164
-6.90682e-005
-0.00406978
-0.00807049
-0.0110712
-0.0140719
-0.0155727
-0.0175734
-0.0180741
-0.0190749
-0.0200756
-0.0210764
-0.0215771
-0.0215779
-0.0220787
-0.0220794
-0.0220802
-0.022581
-0.0225818
-0.0230826
-0.0225834
-0.0230842
-0.022585
-0.0225858
-0.0225866
-0.0225874
-0.0225882
-0.0225891
-0.0225899
-0.0225908
-0.0225916
-0.0225924
-0.0225933
-0.0220942
-0.022595
-0.0225959
-0.0225968
-0.0225977
-0.0230985
-0.0225994
-0.0231003
-0.0226012
-0.0236021
-0.023103
-0.0236039
-0.0236049
-0.0236058
-0.0241067
-0.0236077
-0.0241086
-0.0241095
-0.0246105
-0.0251114
-0.0251124
-0.0251134
-0.0251143
-0.0256153
-0.0256163
-0.0261173
-0.0266183
-0.0266193
-0.0266203
-0.0271213
-0.0276223
-0.0276233
-0.0281243
-0.0281254
-0.0286264
-0.0286274
-0.0291285
-0.0291295
-0.0296306
-0.0291316
-0.0291327
-0.0296337
-0.0301348
-0.0301359
-0.030137
-0.0306381
-0.0306391
-0.0306402
-0.0306413
-0.0311424
-0.0306436
-0.0311447
-0.0311458
-0.0311469
-0.031648
-0.0311492
-0.0311503
-0.0316515
-0.0321526
-0.0316538
-0.0311549
-0.0321561
-0.0321572
-0.0316584
-0.0316596
-0.0321608
-0.031662
-0.0316631
-0.0316643
-0.0321655
-0.0321667
-0.0316679
-0.0321691
-0.0321704
-0.0321716
-0.0321728
-0.032174
-0.0326753
-0.0321765
-0.0321777
-0.031679
-0.0321802
-0.0321815
-0.0326827
-0.032184
-0.0321852
-0.0321865
-0.0316878
-0.0316891
-0.0321903
-0.0321916
-0.0316929
-0.0321942
-0.0321955
-0.0316968
-0.0316981
-0.0316994
-0.0322007
-0.031202
-0.0307033
-0.0307046
-0.0297059
-0.0282072
-0.0272086
-0.0257099
-0.0242112
-0.0227125
-0.0212139
-0.0212152
-0.0212165
-0.0202179
-0.0192192
-0.0182206
-0.0167219
-0.0147233
-0.0127246
-0.011226
-0.0102274
-0.00872871
-0.00973007
-0.0107314
-0.0127328
-0.0152342
-0.0177355
-0.0207369
-0.0237383
-0.0262397
-0.027741
-0.0297424
-0.0307438
-0.0312452
-0.0317466
-0.031248
-0.0317494
-0.0317507
-0.0322521
-0.0312535
-0.0317549
-0.0317563
-0.0312577
-0.0312591
-0.0317605
-0.0327619
-0.0362633
-0.0432647
-0.0522661
-0.0592675
-0.0572689
-0.0407703
-0.000771692
0.0717269
0.161226
0.227724
0.265223
0.307221
0.33672
0.313218
0.269217
0.208716
0.105214
0.0147129
-0.0212885
-0.0247899
-0.0182913
-0.0112927
-0.00829415
-0.0107956
-0.016297
-0.0197984
-0.0207998
-0.0203012
-0.0203026
-0.019804
-0.0188054
-0.0183068
-0.0173082
-0.0168096
-0.015811
-0.0153123
-0.0143137
-0.0138151
-0.0128165
-0.0118179
-0.0103193
-0.0093207
-0.00832209
-0.00682348
-0.00632487
-0.00482625
-0.00332763
-0.00232902
-0.000330399
0.00116822
0.00266684
0.00416547
0.00666409
0.00866272
0.0101613
0.01266
0.0146586
0.0171572
0.0196559
0.0221545
0.0251531
0.0271518
0.0301504
0.0326491
0.0361477
0.0391464
0.042145
0.0456436
0.0501423
0.053641
0.0581396
0.0626383
0.0681369
0.0741356
0.0801342
0.0866329
0.0931316
0.10013
0.107629
0.113628
0.119126
0.125125
0.129124
0.132122
0.133621
0.13362
0.131118
0.127617
0.122616
0.116114
0.107613
0.0986118
0.0886105
0.0781092
0.067108
0.0571067
0.0471054
0.0371041
0.0286028
0.0206015
0.0131002
0.00709895
0.00209768
-0.0029036
-0.00690487
-0.00990614
-0.0129074
-0.0149087
-0.0164099
-0.0179112
-0.0189125
-0.0199137
-0.020415
-0.0209162
-0.0214175
-0.0219187
-0.02242
-0.0219212
-0.0229224
-0.0229237
-0.0229249
-0.0229261
-0.0229274
-0.0229286
-0.0229298
-0.0229311
-0.0224323
-0.0224335
-0.0224347
-0.0224359
-0.0224372
-0.0229384
-0.0224396
-0.0229408
-0.022942
-0.0229432
-0.0229444
-0.0224456
-0.0234468
-0.023448
-0.0234492
-0.0229504
-0.0229516
-0.0234527
-0.0234539
-0.0234551
-0.0234563
-0.0244575
-0.0239586
-0.0244598
-0.024461
-0.0244621
-0.0249633
-0.0249645
-0.0249656
-0.0254668
-0.025468
-0.0259691
-0.0264703
-0.0269714
-0.0269726
-0.0269737
-0.0274749
-0.027476
-0.0274771
-0.0274783
-0.0284794
-0.0284805
-0.0284817
-0.0284828
-0.0289839
-0.0294851
-0.0294862
-0.0294873
-0.0294884
-0.0299895
-0.0299906
-0.0299918
-0.0304929
-0.030994
-0.0304951
-0.0314962
-0.0309973
-0.0309984
-0.0314995
-0.0310006
-0.0315016
-0.0315027
-0.0315038
-0.0315049
-0.031506
-0.0320071
-0.0315081
-0.0320092
-0.0320103
-0.0320113
-0.0320124
-0.0320135
-0.0320145
-0.0325156
-0.0325166
-0.0320177
-0.0320187
-0.0325198
-0.0325208
-0.0325219
-0.0325229
-0.0320239
-0.032525
-0.032026
-0.032527
-0.032528
-0.0325291
-0.0320301
-0.0325311
-0.0325321
-0.0325331
-0.0325341
-0.0320351
-0.0325361
-0.0325371
-0.0325381
-0.0325391
-0.0325401
-0.0320411
-0.032542
-0.032543
-0.032544
-0.032545
-0.0325459
-0.0325469
-0.0320478
-0.0315488
-0.0310497
-0.0305507
-0.0295516
-0.0285526
-0.0270535
-0.0255544
-0.0235554
-0.0225563
-0.0220572
-0.0215581
-0.021059
-0.0200599
-0.0195608
-0.0180617
-0.0165626
-0.0150635
-0.0125644
-0.0110653
-0.00956615
-0.00956702
-0.0100679
-0.0115687
-0.0135696
-0.0160705
-0.0185713
-0.0215721
-0.024573
-0.0270738
-0.0285746
-0.0300755
-0.0310763
-0.0315771
-0.0320779
-0.0315787
-0.0325795
-0.0325803
-0.0320811
-0.0320819
-0.0320827
-0.0320834
-0.0315842
-0.0320849
-0.0320857
-0.0340865
-0.0380872
-0.0450879
-0.0535887
-0.0595894
-0.0565901
-0.0375908
0.00590847
0.0799078
0.168907
0.231906
0.267906
0.310405
0.336404
0.308904
0.264903
0.201402
0.0959017
0.00940108
-0.0230995
-0.0251002
-0.0186008
-0.0116014
-0.00860202
-0.0116026
-0.0166032
-0.0206038
-0.0216044
-0.0216049
-0.0211055
-0.0206061
-0.0201066
-0.0196072
-0.0186077
-0.0181082
-0.0176088
-0.0166093
-0.0156098
-0.0151103
-0.0146108
-0.0131113
-0.0121117
-0.0111122
-0.0106127
-0.00911314
-0.00811359
-0.00711403
-0.00561447
-0.0041149
-0.00261532
-0.00111573
0.000383868
0.00188347
0.00388308
0.0058827
0.00738233
0.00938196
0.0113816
0.0138813
0.0158809
0.0183806
0.0208803
0.0228799
0.0263796
0.0288793
0.031379
0.0343787
0.0373785
0.0403782
0.0443779
0.0483777
0.0528774
0.0573772
0.062377
0.0673767
0.0733765
0.0798763
0.0863761
0.0933759
0.0998758
0.105876
0.112375
0.117375
0.121375
0.124875
0.126875
0.127375
0.126375
0.123375
0.118874
0.112874
0.105374
0.0968742
0.0873741
0.0778741
0.067874
0.057874
0.047874
0.0383739
0.0298739
0.0218739
0.0138739
0.00787393
0.00237395
-0.00262602
-0.00612599
-0.00962594
-0.0126259
-0.0151258
-0.0166258
-0.0186257
-0.0191256
-0.0201255
-0.0206254
-0.0216253
-0.0216252
-0.022125
-0.0226249
-0.0226248
-0.0226246
-0.0226245
-0.0236243
-0.0231241
-0.0236239
-0.0231237
-0.0231235
-0.0236233
-0.0231231
-0.0231229
-0.0236227
-0.0231224
-0.0231222
-0.0226219
-0.0231216
-0.0231214
-0.0231211
-0.0231208
-0.0231205
-0.0231202
-0.0231199
-0.0236196
-0.0231192
-0.0236189
-0.0231186
-0.0231182
-0.0236179
-0.0236175
-0.0241171
-0.0241167
-0.0236163
-0.024616
-0.0246155
-0.0251151
-0.0246147
-0.0251143
-0.0251139
-0.0256134
-0.025613
-0.0261125
-0.026112
-0.0266116
-0.0271111
-0.0271106
-0.0271101
-0.0276096
-0.0276091
-0.0276086
-0.028108
-0.0281075
-0.028607
-0.0286064
-0.0286059
-0.0291053
-0.0296047
-0.0296042
-0.0301036
-0.030103
-0.0301024
-0.0301018
-0.0306012
-0.0306005
-0.0310999
-0.0310993
-0.0310986
-0.031098
-0.0310973
-0.0310967
-0.031096
-0.0315953
-0.0315946
-0.0315939
-0.0320932
-0.0315925
-0.0320918
-0.0315911
-0.0320904
-0.0320896
-0.0320889
-0.0320881
-0.0325874
-0.0320866
-0.0325858
-0.0320851
-0.0320843
-0.0320835
-0.0320827
-0.0320819
-0.0325811
-0.0325803
-0.0320794
-0.0325786
-0.0330777
-0.0325769
-0.032576
-0.0320752
-0.0325743
-0.0330734
-0.0320725
-0.0325716
-0.0325708
-0.0325698
-0.0325689
-0.032568
-0.0325671
-0.0325661
-0.0325652
-0.0325643
-0.0325633
-0.0325623
-0.0325614
-0.0325604
-0.0325594
-0.0325584
-0.0320574
-0.0320564
-0.0320554
-0.0315544
-0.0310534
-0.0295523
-0.0290513
-0.0275502
-0.0260492
-0.0245481
-0.023047
-0.022046
-0.0210449
-0.0215438
-0.0205427
-0.0200416
-0.0185405
-0.0175394
-0.0160382
-0.0135371
-0.012036
-0.0105348
-0.0100337
-0.00953249
-0.0105313
-0.0120301
-0.014529
-0.0175278
-0.0200266
-0.0220254
-0.0250242
-0.0270229
-0.0285217
-0.0300205
-0.0315192
-0.031518
-0.0320167
-0.0320155
-0.0320142
-0.0320129
-0.0325116
-0.0325103
-0.032009
-0.0320077
-0.0320064
-0.0315051
-0.0320038
-0.0335024
-0.0375011
-0.0444997
-0.0534984
-0.059997
-0.0564956
-0.0389942
0.00200714
0.0735085
0.16101
0.227011
0.263513
0.304014
0.335516
0.317517
0.274519
0.21902
0.122521
0.0270229
-0.0184756
-0.0259742
-0.0204727
-0.0129712
-0.00846966
-0.00946815
-0.0144666
-0.0189651
-0.0209636
-0.020962
-0.0209605
-0.0204589
-0.0194574
-0.0189558
-0.0179542
-0.0169526
-0.0164511
-0.0154495
-0.0149479
-0.0144462
-0.0134446
-0.011943
-0.0114414
-0.00993974
-0.00943809
-0.00843644
-0.00743478
-0.00593312
-0.00443144
-0.00292976
-0.00192808
-0.000426385
0.00107531
0.00257702
0.00507873
0.00658045
0.00858218
0.0100839
0.0125856
0.0145874
0.0175891
0.0195909
0.0215927
0.0245944
0.0270962
0.029598
0.0320998
0.0351016
0.0381034
0.0411052
0.044607
0.0481088
0.0521107
0.0561125
0.0611143
0.0666162
0.071618
0.0776199
0.0841217
0.0906236
0.0966255
0.103627
0.110129
0.116131
0.121633
0.126635
0.130137
0.132639
0.133641
0.132643
0.130644
0.126646
0.121148
0.11415
0.105652
0.0971542
0.0871561
0.0771581
0.0666601
0.056662
0.046664
0.037666
0.028668
0.0206699
0.0141719
0.00767392
0.00217592
-0.00232208
-0.00582008
-0.00931807
-0.0118161
-0.014814
-0.015812
-0.01731
-0.018308
-0.019306
-0.0198039
-0.0213019
-0.0217998
-0.0212978
-0.0222958
-0.0227937
-0.0227917
-0.0222896
-0.0227876
-0.0227855
-0.0227834
-0.0227814
-0.0227793
-0.0227772
-0.0232752
-0.0227731
-0.023271
-0.022269
-0.0227669
-0.0227648
-0.0222627
-0.0222606
-0.0227586
-0.0227565
-0.0222544
-0.0222523
-0.0227502
-0.0227481
-0.023246
-0.022744
-0.0227419
-0.0232398
-0.0237377
-0.0232356
-0.0237335
-0.0237314
-0.0237293
-0.0242272
-0.0237251
-0.024223
-0.0242209
-0.0242189
-0.0247168
-0.0247147
-0.0252126
-0.0252105
-0.0257084
-0.0257063
-0.0262042
-0.0262021
-0.0267
-0.026698
-0.0266959
-0.0271938
-0.0276917
-0.0276896
-0.0281875
-0.0281855
-0.0281834
-0.0286813
-0.0291792
-0.0291772
-0.0291751
-0.029173
-0.029171
-0.0301689
-0.0296668
-0.0301648
-0.0301627
-0.0306607
-0.0301586
-0.0306566
-0.0311545
-0.0306525
-0.0311504
-0.0311484
-0.0306463
-0.0316443
-0.0311423
-0.0316403
-0.0316382
-0.0316362
-0.0316342
-0.0316322
-0.0311302
-0.0316282
-0.0316262
-0.0316242
-0.0316222
-0.0321202
-0.0316182
-0.0321162
-0.0316142
-0.0321122
-0.0316103
-0.0316083
-0.0316063
-0.0321044
-0.0321024
-0.0321005
-0.0315985
-0.0320966
-0.0320947
-0.0320927
-0.0315908
-0.0320889
-0.032087
-0.0320851
-0.0320831
-0.0315812
-0.0315793
-0.0315775
-0.0320756
-0.0320737
-0.0320718
-0.0315699
-0.0320681
-0.0315662
-0.0320644
-0.0320625
-0.0320607
-0.0315588
-0.031057
-0.0310552
-0.0305533
-0.0300515
-0.0285497
-0.0275479
-0.0260461
-0.0245443
-0.0230425
-0.0220408
-0.021039
-0.0205372
-0.0200355
-0.0195337
-0.019032
-0.0175302
-0.0160285
-0.0135268
-0.012025
-0.0100233
-0.00952162
-0.00851992
-0.0100182
-0.0110165
-0.0135149
-0.0165132
-0.0180115
-0.0210099
-0.0240082
-0.0265066
-0.0280049
-0.0295033
-0.0305017
-0.0305
-0.0314984
-0.0314968
-0.0319952
-0.0319936
-0.031992
-0.0314905
-0.0309889
-0.0314873
-0.0319858
-0.0314842
-0.0319827
-0.0334812
-0.0374796
-0.0449781
-0.0539766
-0.0594751
-0.0549736
-0.0349721
0.0100293
0.0870308
0.175532
0.235534
0.271035
0.315037
0.337038
0.307039
0.263041
0.195042
0.0885437
0.00554507
-0.0234535
-0.0244522
-0.0179508
-0.0104495
-0.0084481
-0.0119468
-0.0169454
-0.0204441
-0.0214428
-0.0209415
-0.0204402
-0.0199389
-0.0194376
-0.0184363
-0.0184351
-0.0174338
-0.0164326
-0.0159313
-0.0149301
-0.0144289
-0.0134277
-0.0124265
-0.0114253
-0.0104241
-0.00942292
-0.00792176
-0.0074206
-0.00541945
-0.00441831
-0.00291718
-0.00191606
8.50479e-005
0.00158615
0.00258724
0.00558833
0.0065894
0.00859046
0.0110915
0.0130926
0.0155936
0.0180946
0.0200956
0.0225966
0.0250976
0.0280986
0.0305996
0.0336006
0.0366015
0.0401025
0.0431034
0.0471043
0.0511053
0.0561062
0.0606071
0.066108
0.0721088
0.0786097
0.0851106
0.0921114
0.0986122
0.105613
0.111614
0.117115
0.121615
0.125116
0.127617
0.128618
0.127119
0.124119
0.12012
0.113621
0.106621
0.0976221
0.0881228
0.0781235
0.0676241
0.0576248
0.0476254
0.0376261
0.0286267
0.0206273
0.0136279
0.00712846
0.00112903
-0.00337041
-0.00686986
-0.00986932
-0.0128688
-0.0153683
-0.0168678
-0.0178673
-0.0193668
-0.0198663
-0.0208659
-0.0208654
-0.021365
-0.0218646
-0.0223642
-0.0223638
-0.0218634
-0.0223631
-0.0223627
-0.0223623
-0.022362
-0.0223617
-0.0228614
-0.0223611
-0.0223608
-0.0223605
-0.0223603
-0.02236
-0.0223598
-0.0223596
-0.0228594
-0.0223592
-0.022359
-0.0223588
-0.0218587
-0.0228585
-0.0228584
-0.0223583
-0.0223582
-0.0223581
-0.022858
-0.022858
-0.0228579
-0.0233579
-0.0233578
-0.0233578
-0.0238578
-0.0238579
-0.0238579
-0.0238579
-0.024858
-0.0248581
-0.0253581
-0.0253582
-0.0258583
-0.0258585
-0.0258586
-0.0263587
-0.0263589
-0.0268591
-0.0268593
-0.0268595
-0.0278597
-0.0278599
-0.0278602
-0.0283604
-0.0283607
-0.028861
-0.0293613
-0.0288616
-0.0293619
-0.0298623
-0.0298626
-0.029863
-0.0298634
-0.0298638
-0.0303642
-0.0308646
-0.030865
-0.0303655
-0.0313659
-0.0308664
-0.0313669
-0.0308674
-0.0313679
-0.0313685
-0.031869
-0.0313696
-0.0313701
-0.0318707
-0.0313713
-0.0313719
-0.0313726
-0.0318732
-0.0313738
-0.0313745
-0.0318752
-0.0318759
-0.0318766
-0.0313773
-0.031378
-0.0318788
-0.0318796
-0.0323803
-0.0313811
-0.0318819
-0.0318827
-0.0313836
-0.0318844
-0.0313853
-0.0318861
-0.031387
-0.0318879
-0.0318888
-0.0313897
-0.0318907
-0.0323916
-0.0318926
-0.0318935
-0.0313945
-0.0318955
-0.0318965
-0.0318975
-0.0318986
-0.0313996
-0.0314007
-0.0309018
-0.0304028
-0.0294039
-0.028405
-0.0269062
-0.0249073
-0.0239085
-0.0224096
-0.0209108
-0.020912
-0.0204132
-0.0199144
-0.0189156
-0.0179168
-0.0159181
-0.0134193
-0.0114206
-0.00992187
-0.00942316
-0.00892446
-0.0104258
-0.0124271
-0.0149284
-0.0174298
-0.0204311
-0.0234325
-0.0259339
-0.0279353
-0.0294367
-0.0304381
-0.0309395
-0.031441
-0.0319424
-0.0314439
-0.0314453
-0.0314468
-0.0314483
-0.0314498
-0.0314513
-0.0314528
-0.0314544
-0.0329559
-0.0374575
-0.045459
-0.0554606
-0.0594622
-0.0509638
-0.0204654
0.042533
0.136531
0.21753
0.260028
0.304026
0.338025
0.311523
0.264521
0.19152
0.0775181
-0.0034836
-0.0249853
-0.022487
-0.0139888
-0.0079905
-0.00899225
-0.014494
-0.0189958
-0.0204975
-0.0209993
-0.0200011
-0.0195029
-0.0185047
-0.0180065
-0.0165084
-0.0160102
-0.015512
-0.0145139
-0.0135157
-0.0125176
-0.0115195
-0.0105213
-0.00902322
-0.00802512
-0.00702701
-0.00552892
-0.00453084
-0.00253276
-0.00103469
-3.66204e-005
0.00196144
0.00395949
0.00595753
0.00845557
0.0104536
0.0124516
0.0149496
0.0174477
0.0204457
0.0229437
0.0259416
0.0289396
0.0319376
0.0354356
0.0384336
0.0419315
0.0454295
0.0494274
0.0539254
0.0589233
0.0639212
0.0694192
0.0759171
0.083415
0.0904129
0.0974108
0.104909
0.112407
0.118904
0.124902
0.1289
0.132398
0.133896
0.133394
0.130892
0.12589
0.120387
0.111885
0.102883
0.091881
0.0803788
0.0693766
0.0578744
0.0468723
0.0368701
0.0273679
0.0183657
0.0108635
0.0048613
-0.00114091
-0.00514312
-0.00864533
-0.0121475
-0.0146498
-0.016152
-0.0176542
-0.0191564
-0.0196587
-0.0206609
-0.0216632
-0.0216654
-0.0216677
-0.0221699
-0.0221722
-0.0226744
-0.0226767
-0.0226789
-0.0221812
-0.0231835
-0.0226858
-0.022688
-0.0226903
-0.0226926
-0.0231949
-0.0221972
-0.0231994
-0.0227017
-0.022704
-0.0232063
-0.0227086
-0.0232109
-0.0227132
-0.0232155
-0.0227178
-0.0227201
-0.0232225
-0.0237248
-0.0237271
-0.0232294
-0.0232317
-0.024234
-0.0237364
-0.0237387
-0.024741
-0.0247433
-0.0247457
-0.025248
-0.0252503
-0.0252527
-0.025755
-0.0262573
-0.0262597
-0.026762
-0.0272643
-0.0272667
-0.027269
-0.0277713
-0.0277737
-0.028276
-0.0287784
-0.0287807
-0.029283
-0.0292854
-0.0292877
-0.0292901
-0.0297924
-0.0297948
-0.0297971
-0.0302995
-0.0308018
-0.0308041
-0.0313065
-0.0303088
-0.0308112
-0.0308135
-0.0313159
-0.0313182
-0.0313205
-0.0318229
-0.0318252
-0.0313276
-0.0318299
-0.0313322
-0.0318346
-0.0313369
-0.0323392
-0.0318416
-0.0323439
-0.0323462
-0.0323485
-0.0318509
-0.0323532
-0.0323555
-0.0323578
-0.0323602
-0.0318625
-0.0318648
-0.0323671
-0.0323694
-0.0318717
-0.032374
-0.0323764
-0.0318787
-0.032381
-0.0318833
-0.0323856
-0.0323878
-0.0318901
-0.0323924
-0.0323947
-0.032397
-0.0318993
-0.0324015
-0.0324038
-0.0324061
-0.0324084
-0.0324106
-0.0314129
-0.0314151
-0.0309174
-0.0304196
-0.0289219
-0.0274241
-0.0259264
-0.0244286
-0.0224308
-0.021433
-0.0209353
-0.0204375
-0.0204397
-0.0189419
-0.0179441
-0.0154463
-0.0134485
-0.0119507
-0.00995287
-0.00995505
-0.00995722
-0.0114594
-0.0139616
-0.0164637
-0.0194659
-0.022468
-0.0254702
-0.0279723
-0.0294744
-0.0304766
-0.0314787
-0.0319808
-0.0319829
-0.032485
-0.0319871
-0.0319892
-0.0319913
-0.0319934
-0.0314954
-0.0319975
-0.0319996
-0.0335016
-0.0380037
-0.0460057
-0.0555077
-0.0600098
-0.0515118
-0.0210138
0.0444842
0.140482
0.22048
0.262478
0.307976
0.336974
0.303472
0.25497
0.172968
0.0564665
-0.0120355
-0.0265374
-0.0210393
-0.0135412
-0.00854312
-0.011545
-0.0170469
-0.0205488
-0.0220507
-0.0215525
-0.0210544
-0.0205562
-0.0195581
-0.0185599
-0.0180617
-0.0170635
-0.0165653
-0.0155671
-0.0150689
-0.0140707
-0.0125725
-0.0120742
-0.011076
-0.00957774
-0.00807948
-0.00708121
-0.00558293
-0.00458464
-0.00258635
-0.00158804
0.000910273
0.0024086
0.00390693
0.00690527
0.00840362
0.010902
0.0129004
0.0158987
0.0178971
0.0208955
0.0233939
0.0263923
0.0288908
0.0323892
0.0353876
0.0388861
0.0428845
0.046883
0.0513815
0.05588
0.0618785
0.067377
0.0738755
0.080874
0.0878726
0.0953711
0.10187
0.108868
0.114867
0.119865
0.123864
0.126363
0.127361
0.12586
0.122858
0.117857
0.111356
0.102854
0.0933531
0.0833518
0.0718505
0.0613492
0.0503479
0.0403466
0.0298453
0.0218441
0.0133428
0.00734156
0.00134033
-0.00416089
-0.00766211
-0.0111633
-0.0136645
-0.0161657
-0.0176669
-0.019168
-0.0206692
-0.0211703
-0.0216715
-0.0226726
-0.0226737
-0.0226748
-0.0231759
-0.022677
-0.0226781
-0.0231792
-0.0236802
-0.0231813
-0.0236823
-0.0236834
-0.0231844
-0.0231854
-0.0231864
-0.0231874
-0.0226884
-0.0236894
-0.0236903
-0.0226913
-0.0231922
-0.0226932
-0.0231941
-0.023695
-0.0231959
-0.0236968
-0.0231977
-0.0231986
-0.0236995
-0.0237004
-0.0237012
-0.0237021
-0.0242029
-0.0242037
-0.0247045
-0.0247054
-0.0247062
-0.025207
-0.0252077
-0.0257085
-0.0257093
-0.02571
-0.0267108
-0.0267115
-0.0272122
-0.027213
-0.0277137
-0.0277144
-0.0277151
-0.0282158
-0.0282164
-0.0287171
-0.0287178
-0.0287184
-0.0292191
-0.0297197
-0.0302203
-0.0302209
-0.0307215
-0.0297221
-0.0302227
-0.0307233
-0.0312239
-0.0312244
-0.031225
-0.0312255
-0.0307261
-0.0312266
-0.0312271
-0.0317276
-0.0312281
-0.0317286
-0.0322291
-0.0317296
-0.03223
-0.0322305
-0.0317309
-0.0322314
-0.0322318
-0.0327322
-0.0322326
-0.032233
-0.0327334
-0.0322338
-0.0322342
-0.0322346
-0.0322349
-0.0322353
-0.0322356
-0.032736
-0.0327363
-0.0327366
-0.0327369
-0.0327372
-0.0327375
-0.0327378
-0.0327381
-0.0322384
-0.0322386
-0.0322389
-0.0327391
-0.0327394
-0.0322396
-0.0327398
-0.03274
-0.0322402
-0.0327404
-0.0327406
-0.0322407
-0.0322409
-0.0327411
-0.0322412
-0.0322414
-0.0322415
-0.0317416
-0.0307417
-0.0292418
-0.0282419
-0.026742
-0.0247421
-0.0237422
-0.0222422
-0.0212423
-0.0212423
-0.0212424
-0.0202424
-0.0192424
-0.0172424
-0.0152424
-0.0127424
-0.0112424
-0.00974236
-0.00974233
-0.00974228
-0.0122422
-0.0142422
-0.0167421
-0.019742
-0.0222419
-0.0247418
-0.0272417
-0.0292416
-0.0302415
-0.0312414
-0.0322412
-0.0322411
-0.0322409
-0.0322408
-0.0322406
-0.0322404
-0.0322402
-0.03224
-0.0317398
-0.0322396
-0.0322394
-0.0342391
-0.0377389
-0.0452386
-0.0547384
-0.0597381
-0.0537378
-0.0297375
0.0237628
0.109763
0.196763
0.247264
0.285264
0.329264
0.327265
0.283765
0.232265
0.136266
0.0317662
-0.0187334
-0.026233
-0.0202326
-0.0122321
-0.00823172
-0.0112313
-0.0162308
-0.0202304
-0.0212299
-0.0207294
-0.020729
-0.0197285
-0.019228
-0.0187275
-0.0177269
-0.0172264
-0.0167259
-0.0152254
-0.0142248
-0.0137242
-0.0122237
-0.0117231
-0.0102225
-0.00922192
-0.00822132
-0.00722071
-0.00572009
-0.00471947
-0.00271883
-0.00121819
0.000282461
0.00178312
0.00378379
0.00528446
0.00778515
0.00928584
0.0117865
0.0142872
0.016788
0.0192887
0.0217894
0.0237902
0.0267909
0.0297917
0.0327924
0.0357932
0.038794
0.0422948
0.0457956
0.0497964
0.0537972
0.058798
0.0642988
0.0692997
0.0753005
0.0813013
0.0888022
0.0953031
0.102804
0.109305
0.115806
0.121807
0.126307
0.129808
0.132809
0.13331
0.131811
0.129312
0.124313
0.117814
0.110315
0.101316
0.0918169
0.0808178
0.0698188
0.0598198
0.0493208
0.0388218
0.0303228
0.0213238
0.0143248
0.00782586
0.00232689
-0.00317207
-0.00667103
-0.00966998
-0.0126689
-0.0146679
-0.0166668
-0.0181657
-0.0196647
-0.0201636
-0.0206625
-0.0216614
-0.0216603
-0.0221592
-0.0221581
-0.022157
-0.0231559
-0.0231547
-0.0231536
-0.0231525
-0.0231513
-0.0231502
-0.0231491
-0.0231479
-0.0231468
-0.0231456
-0.0231444
-0.0231433
-0.0231421
-0.0226409
-0.0231397
-0.0231386
-0.0236374
-0.0231362
-0.023135
-0.0231338
-0.0231326
-0.0231314
-0.0231302
-0.0236289
-0.0236277
-0.0236265
-0.0236253
-0.0236241
-0.0236228
-0.0236216
-0.0241204
-0.0241191
-0.0246179
-0.0251166
-0.0251154
-0.0256142
-0.0251129
-0.0256117
-0.0261104
-0.0266091
-0.0271079
-0.0271066
-0.0271053
-0.0276041
-0.0276028
-0.0281015
-0.0281003
-0.028099
-0.0285977
-0.0290964
-0.0290952
-0.0290939
-0.0290926
-0.0290913
-0.02959
-0.0300887
-0.0300874
-0.0305862
-0.0305849
-0.0305836
-0.0305823
-0.031081
-0.0310797
-0.0310784
-0.0310771
-0.0310758
-0.0315745
-0.0315732
-0.0320719
-0.0320706
-0.0315693
-0.031568
-0.0320667
-0.0320654
-0.0320641
-0.0320628
-0.0320615
-0.0320602
-0.0325588
-0.0325575
-0.0320562
-0.0320549
-0.0320536
-0.0325523
-0.032551
-0.0325497
-0.0320484
-0.0325471
-0.0325458
-0.0325445
-0.0320432
-0.0325419
-0.0325406
-0.0320393
-0.0320379
-0.0325366
-0.0320353
-0.032534
-0.0330327
-0.0325314
-0.0325301
-0.0325288
-0.0325275
-0.0320262
-0.0325249
-0.0325236
-0.0325223
-0.032521
-0.0320197
-0.0325184
-0.0325171
-0.0320158
-0.0320145
-0.0315132
-0.031512
-0.0305107
-0.0290094
-0.0280081
-0.0265068
-0.0250055
-0.0235042
-0.0220029
-0.0215016
-0.0210004
-0.0204991
-0.0204978
-0.0194965
-0.0174952
-0.015494
-0.0139927
-0.0114914
-0.0104901
-0.00948885
-0.00948757
-0.0104863
-0.012485
-0.0144838
-0.0169825
-0.0194812
-0.02298
-0.0249787
-0.0279774
-0.0289762
-0.0304749
-0.0309736
-0.0319724
-0.0319711
-0.0319699
-0.0319686
-0.0324674
-0.0319661
-0.0324649
-0.0319636
-0.0319624
-0.0314611
-0.0319599
-0.0329586
-0.0359574
-0.0419561
-0.0509549
-0.0584537
-0.0584524
-0.0454512
-0.00994997
0.0565513
0.145552
0.219554
0.258555
0.299556
0.334557
0.318559
0.27456
0.218061
0.118062
0.0215635
-0.0209353
-0.0259341
-0.0199329
-0.0124316
-0.00843043
-0.0109292
-0.016428
-0.0199268
-0.0219256
-0.0214244
-0.0214232
-0.020422
-0.0204208
-0.0194196
-0.0184184
-0.0179172
-0.017416
-0.0159149
-0.0154137
-0.0149125
-0.0139113
-0.0129101
-0.0119089
-0.0109078
-0.0099066
-0.00840543
-0.00740425
-0.00640308
-0.00540192
-0.00390075
-0.00189959
-0.000898427
0.00110273
0.00260389
0.00410505
0.0061062
0.00760735
0.0101085
0.0126096
0.0146108
0.0166119
0.0196131
0.0221142
0.0246153
0.0271165
0.0301176
0.0326187
0.0361199
0.039121
0.0426221
0.0461232
0.0506244
0.0546255
0.0596266
0.0651277
0.0706288
0.0771299
0.083131
0.0901321
0.0966332
0.103634
0.110135
0.115636
0.120638
0.124139
0.12664
0.127641
0.126642
0.124143
0.120144
0.114145
0.107646
0.0991472
0.0901483
0.0796493
0.0696504
0.0591514
0.0496525
0.0391535
0.0311546
0.0226556
0.0146566
0.00815764
0.00315867
-0.00184031
-0.00633929
-0.00983828
-0.0128373
-0.0143363
-0.0168353
-0.0183343
-0.0193333
-0.0198323
-0.0203313
-0.0208303
-0.0213293
-0.0223283
-0.0223274
-0.0223264
-0.0228254
-0.0233245
-0.0228235
-0.0233226
-0.0228216
-0.0233207
-0.0228198
-0.0228188
-0.0228179
-0.022817
-0.022816
-0.0223151
-0.0233142
-0.0228133
-0.0228124
-0.0223115
-0.0228106
-0.0223097
-0.0233088
-0.023308
-0.0228071
-0.0233062
-0.0233054
-0.0233045
-0.0238036
-0.0228028
-0.023302
-0.0238011
-0.0233003
-0.0242995
-0.0237986
-0.0237978
-0.024297
-0.0242962
-0.0247954
-0.0252946
-0.0252938
-0.025293
-0.0257922
-0.0257914
-0.0257907
-0.0262899
-0.0267892
-0.0267884
-0.0272876
-0.0277869
-0.0272862
-0.0277854
-0.0282847
-0.028784
-0.0287833
-0.0287826
-0.0292819
-0.0287812
-0.0292805
-0.0292798
-0.0292791
-0.0297784
-0.0302777
-0.0302771
-0.0302764
-0.0307758
-0.0312751
-0.0307745
-0.0307738
-0.0312732
-0.0312726
-0.031272
-0.0312714
-0.0312708
-0.0312702
-0.0312696
-0.031769
-0.0317684
-0.0317678
-0.0317672
-0.0317667
-0.0317661
-0.0322656
-0.031765
-0.0317645
-0.0317639
-0.0317634
-0.0322629
-0.0322624
-0.0322618
-0.0327613
-0.0317608
-0.0322603
-0.0317599
-0.0322594
-0.0322589
-0.0322584
-0.0317579
-0.0322575
-0.032257
-0.0322566
-0.0322561
-0.0317557
-0.0322553
-0.0317548
-0.0322544
-0.032254
-0.0327536
-0.0327532
-0.0322528
-0.0322524
-0.031752
-0.0322516
-0.0317512
-0.0317509
-0.0317505
-0.0317501
-0.0307498
-0.0307494
-0.0297491
-0.0287487
-0.0272484
-0.0252481
-0.0237478
-0.0227474
-0.0217471
-0.0212468
-0.0207465
-0.0202462
-0.0197459
-0.0182456
-0.0167453
-0.0142451
-0.0127448
-0.0107445
-0.00924425
-0.00924399
-0.00974374
-0.0112435
-0.0137432
-0.016243
-0.0192428
-0.0217425
-0.0242423
-0.0272421
-0.0287419
-0.0302416
-0.0307414
-0.0317412
-0.031741
-0.0317408
-0.0317406
-0.0317404
-0.0322402
-0.0317401
-0.0317399
-0.0317397
-0.0317395
-0.0322394
-0.0327392
-0.0362391
-0.0427389
-0.0522387
-0.0592386
-0.0567385
-0.0397383
0.00326182
0.080262
0.171762
0.234262
0.271262
0.316262
0.335763
0.302263
0.255763
0.178763
0.068763
-0.00523688
-0.0257368
-0.0237367
-0.0152366
-0.0097365
-0.00923642
-0.0142363
-0.0192362
-0.0207362
-0.0217361
-0.021236
-0.0202359
-0.0197359
-0.0192358
-0.0187357
-0.0177357
-0.0167356
-0.0162356
-0.0152355
-0.0142355
-0.0137354
-0.0127354
-0.0122353
-0.0112353
-0.00973523
-0.00823519
-0.00773515
-0.00623511
-0.00523508
-0.00373504
-0.00173501
-0.000234984
0.00126504
0.00326507
0.00476509
0.00676512
0.00926514
0.0107652
0.0132652
0.0157652
0.0182652
0.0202652
0.0227652
0.0257652
0.0287653
0.0312653
0.0342653
0.0367653
0.0402653
0.0442653
0.0482653
0.0527653
0.0572653
0.0632653
0.0687653
0.0742653
0.0812653
0.0877653
0.0947653
0.101265
0.108265
0.114265
0.119765
0.123765
0.126265
0.127765
0.127265
0.125265
0.121265
0.115765
0.108765
0.100265
0.0907651
0.0807651
0.0707651
0.0592651
0.0502651
0.039765
0.030765
0.022265
0.014765
0.00826497
0.00226495
-0.00273507
-0.00673509
-0.0102351
-0.0122351
-0.0147352
-0.0167352
-0.0182352
-0.0192352
-0.0197352
-0.0207353
-0.0207353
-0.0212353
-0.0227353
-0.0217354
-0.0222354
-0.0222354
-0.0227355
-0.0232355
-0.0232355
-0.0227355
-0.0227356
-0.0222356
-0.0227356
-0.0232356
-0.0227357
-0.0227357
-0.0227357
-0.0227358
-0.0227358
-0.0227358
-0.0232358
-0.0227359
-0.0227359
-0.0227359
-0.022736
-0.022736
-0.022736
-0.023236
-0.0232361
-0.0232361
-0.0232361
-0.0232362
-0.0232362
-0.0242362
-0.0237363
-0.0242363
-0.0242363
-0.0242363
-0.0242364
-0.0247364
-0.0252364
-0.0247365
-0.0257365
-0.0257365
-0.0262366
-0.0262366
-0.0272366
-0.0267366
-0.0272367
-0.0272367
-0.0277367
-0.0282368
-0.0277368
-0.0282368
-0.0287369
-0.0282369
-0.0287369
-0.0292369
-0.029237
-0.029737
-0.029737
-0.029737
-0.0302371
-0.0302371
-0.0302371
-0.0302372
-0.0307372
-0.0307372
-0.0307372
-0.0312373
-0.0312373
-0.0312373
-0.0312373
-0.0317374
-0.0317374
-0.0317374
-0.0312374
-0.0317374
-0.0317375
-0.0317375
-0.0317375
-0.0317375
-0.0317375
-0.0317376
-0.0317376
-0.0317376
-0.0317376
-0.0322376
-0.0317376
-0.0322377
-0.0322377
-0.0317377
-0.0322377
-0.0317377
-0.0322377
-0.0322377
-0.0322377
-0.0322377
-0.0317377
-0.0322377
-0.0317378
-0.0322378
-0.0317378
-0.0322378
-0.0317378
-0.0322378
-0.0327378
-0.0322378
-0.0322378
-0.0317378
-0.0322377
-0.0322377
-0.0322377
-0.0322377
-0.0322377
-0.0317377
-0.0317377
-0.0312377
-0.0312377
-0.0297376
-0.0287376
-0.0272376
-0.0262376
-0.0247376
-0.0232375
-0.0217375
-0.0217375
-0.0212375
-0.0202374
-0.0197374
-0.0187374
-0.0172373
-0.0157373
-0.0137373
-0.0112372
-0.00973717
-0.00973713
-0.00923709
-0.010237
-0.012237
-0.0152369
-0.0172369
-0.0202368
-0.0227368
-0.0252367
-0.0277367
-0.0292366
-0.0307365
-0.0307365
-0.0317364
-0.0322363
-0.0322363
-0.0317362
-0.0317361
-0.032236
-0.031736
-0.0317359
-0.0317358
-0.0312357
-0.0317356
-0.0332355
-0.0367354
-0.0432353
-0.0517353
-0.0592352
-0.0577351
-0.0412349
-0.00173484
0.0692653
0.158765
0.227265
0.264266
0.306266
0.336766
0.314266
0.270266
0.210266
0.107766
0.0162665
-0.0217334
-0.0252333
-0.0187331
-0.011733
-0.00823285
-0.0102327
-0.0157326
-0.0192324
-0.0202323
-0.0207321
-0.020232
-0.0197318
-0.0192316
-0.0182315
-0.0177313
-0.0167312
-0.015731
-0.0147308
-0.0142306
-0.0132305
-0.0122303
-0.0117301
-0.0107299
-0.0102297
-0.00872956
-0.00722937
-0.00622918
-0.00472899
-0.0037288
-0.0022286
-0.000228403
0.000771796
0.002272
0.0042722
0.00627241
0.00827261
0.0102728
0.011773
0.0147732
0.0167735
0.0192737
0.0212739
0.0242741
0.0267743
0.0292746
0.0317748
0.034775
0.0382752
0.0412755
0.0442757
0.0482759
0.0517762
0.0562764
0.0607766
0.0662769
0.0712771
0.0772773
0.0832776
0.0897778
0.0962781
0.103778
0.110279
0.116279
0.121779
0.126279
0.13028
0.13278
0.13378
0.13328
0.130781
0.126781
0.120781
0.114781
0.106782
0.0972818
0.087282
0.0767823
0.0672825
0.0567827
0.047283
0.0372832
0.0287835
0.0207837
0.013784
0.00778424
0.00228449
-0.00221527
-0.00621502
-0.00971478
-0.0117145
-0.0137143
-0.0157141
-0.0172138
-0.0182136
-0.0197133
-0.0202131
-0.0207129
-0.0212126
-0.0212124
-0.0217122
-0.0222119
-0.0222117
-0.0222115
-0.0227113
-0.022711
-0.0227108
-0.0227106
-0.0227104
-0.0227102
-0.02271
-0.0222097
-0.0227095
-0.0227093
-0.0222091
-0.0227089
-0.0227087
-0.0227086
-0.0227084
-0.0227082
-0.022708
-0.0222078
-0.0227076
-0.0227075
-0.0227073
-0.0227071
-0.023207
-0.0232068
-0.0232066
-0.0232065
-0.0237063
-0.0237062
-0.0237061
-0.0237059
-0.0242058
-0.0242057
-0.0242055
-0.0247054
-0.0247053
-0.0252052
-0.0247051
-0.025205
-0.0252049
-0.0252048
-0.0262047
-0.0262046
-0.0267046
-0.0267045
-0.0272044
-0.0272043
-0.0277043
-0.0272042
-0.0277042
-0.0282042
-0.0282041
-0.0287041
-0.0287041
-0.0287041
-0.028704
-0.029704
-0.029204
-0.030204
-0.030204
-0.0302041
-0.0302041
-0.0302041
-0.0302042
-0.0307042
-0.0302042
-0.0307043
-0.0307044
-0.0307044
-0.0312045
-0.0312046
-0.0312047
-0.0312048
-0.0317049
-0.031705
-0.0312051
-0.0312052
-0.0317053
-0.0312055
-0.0317056
-0.0322058
-0.0312059
-0.0322061
-0.0322063
-0.0322064
-0.0317066
-0.0322068
-0.032207
-0.0322072
-0.0317075
-0.0322077
-0.0322079
-0.0327081
-0.0322084
-0.0317086
-0.0322089
-0.0322092
-0.0322094
-0.0322097
-0.03221
-0.0317103
-0.0317106
-0.0322109
-0.0322113
-0.0322116
-0.0322119
-0.0322123
-0.0322126
-0.032713
-0.0322134
-0.0322138
-0.0322141
-0.0322145
-0.0327149
-0.0322154
-0.0317158
-0.0322162
-0.0317166
-0.0312171
-0.0312175
-0.030718
-0.0297185
-0.0292189
-0.0282194
-0.0272199
-0.0252204
-0.0237209
-0.0227214
-0.021722
-0.0212225
-0.020723
-0.0202236
-0.0197241
-0.0192247
-0.0172253
-0.0162259
-0.0142265
-0.0117271
-0.0107277
-0.00972828
-0.00922891
-0.00972954
-0.0112302
-0.0127308
-0.0152315
-0.0182322
-0.0202328
-0.0227335
-0.0252342
-0.0277349
-0.0292356
-0.0302363
-0.030737
-0.0312378
-0.0317385
-0.0322393
-0.03224
-0.0317408
-0.0322415
-0.0317423
-0.0317431
-0.0317439
-0.0317447
-0.0317455
-0.0312463
-0.0327472
-0.034748
-0.0402488
-0.0482497
-0.0562506
-0.0597514
-0.0532523
-0.0322532
0.0122459
0.084745
0.167244
0.228743
0.263242
0.302241
0.33524
0.322739
0.282239
0.235738
0.152737
0.0537356
-0.00776535
-0.0252663
-0.0237673
-0.0167683
-0.0107694
-0.00827037
-0.0117714
-0.0162724
-0.0197735
-0.0212745
-0.0212756
-0.0212766
-0.0207777
-0.0197788
-0.0197799
-0.018781
-0.0177821
-0.0177832
-0.0167843
-0.0162854
-0.0157865
-0.0147877
-0.0137888
-0.01329
-0.0122911
-0.0112923
-0.0107935
-0.00879464
-0.00829583
-0.00679702
-0.00629822
-0.00479942
-0.00330063
-0.00180185
-0.000803077
0.00119569
0.00269445
0.00469321
0.00619195
0.00769069
0.00968943
0.0121882
0.0136869
0.0156856
0.0176843
0.020183
0.0226817
0.0246804
0.0271791
0.0296777
0.0326764
0.0351751
0.0381737
0.0411724
0.044671
0.0481697
0.0521683
0.0566669
0.0611656
0.0666642
0.0716628
0.0776614
0.08366
0.0896586
0.0956571
0.102156
0.108154
0.113653
0.118651
0.12265
0.125649
0.127147
0.127646
0.126644
0.124143
0.120141
0.11564
0.109138
0.101137
0.0926352
0.0841337
0.0746322
0.0651307
0.0551291
0.0461276
0.0371261
0.0291245
0.021623
0.0146214
0.00861988
0.00311832
-0.00138325
-0.00538482
-0.0083864
-0.011388
-0.0133896
-0.0158912
-0.0173928
-0.0183944
-0.019896
-0.0203976
-0.0208992
-0.0214008
-0.0219025
-0.0219041
-0.0224057
-0.0229074
-0.022909
-0.0229107
-0.0229123
-0.023414
-0.0229157
-0.0234173
-0.022919
-0.0229207
-0.0229224
-0.0229241
-0.0229258
-0.0229275
-0.0234292
-0.0234309
-0.0234326
-0.0224343
-0.022936
-0.0229377
-0.0234395
-0.0229412
-0.0229429
-0.0229447
-0.0229464
-0.0229482
-0.0229499
-0.0234517
-0.0234534
-0.0234552
-0.023457
-0.0234587
-0.0239605
-0.0239623
-0.0239641
-0.0244659
-0.0244676
-0.0239694
-0.0244712
-0.024973
-0.0249748
-0.0249766
-0.0254784
-0.0254802
-0.0259821
-0.0259839
-0.0264857
-0.0269875
-0.0269893
-0.0274912
-0.027493
-0.0274948
-0.0274967
-0.0284985
-0.0285003
-0.0285022
-0.028504
-0.0290058
-0.0290077
-0.0290095
-0.0295114
-0.0295132
-0.0295151
-0.0300169
-0.0305188
-0.0300207
-0.0305225
-0.0305244
-0.0310262
-0.0310281
-0.03103
-0.0315318
-0.0315337
-0.0315356
-0.0315374
-0.0315393
-0.0315412
-0.031543
-0.0320449
-0.0315468
-0.0315486
-0.0320505
-0.0320524
-0.0325542
-0.0325561
-0.032058
-0.0320599
-0.0320617
-0.0325636
-0.0325655
-0.0325673
-0.0320692
-0.032071
-0.0325729
-0.0325748
-0.0325766
-0.0325785
-0.0320803
-0.0325822
-0.0320841
-0.0325859
-0.0320878
-0.0325896
-0.0325915
-0.0320933
-0.0330951
-0.032597
-0.0325988
-0.0326007
-0.0326025
-0.0326043
-0.0331061
-0.032608
-0.0326098
-0.0331116
-0.0326134
-0.0326152
-0.032617
-0.0326188
-0.0326206
-0.0321224
-0.0326242
-0.032626
-0.0321278
-0.0316296
-0.0311313
-0.0306331
-0.0291349
-0.0281366
-0.0271384
-0.0256401
-0.0241419
-0.0226436
-0.0216453
-0.0211471
-0.0211488
-0.0206505
-0.0196522
-0.0186539
-0.0171556
-0.0146573
-0.013159
-0.0116607
-0.0101623
-0.009664
-0.00966566
-0.0111673
-0.0131689
-0.0156706
-0.0176722
-0.0211738
-0.0236754
-0.0256771
-0.0281787
-0.0296802
-0.0306818
-0.0311834
-0.031685
-0.0326865
-0.0321881
-0.0321896
-0.0326911
-0.0321927
-0.0321942
-0.0321957
-0.0321972
-0.0316987
-0.0317001
-0.0327016
-0.0342031
-0.0382045
-0.0457059
-0.0547074
-0.0597088
-0.0562102
-0.0372116
0.00578703
0.0792857
0.166784
0.230283
0.265782
0.30728
0.336779
0.315278
0.271776
0.214775
0.115274
0.0217725
-0.0197287
-0.02623
-0.0202312
-0.0127324
-0.00873362
-0.0102348
-0.015736
-0.0192372
-0.0212383
-0.0217395
-0.0212406
-0.0202417
-0.0197428
-0.0192439
-0.018245
-0.017746
-0.0167471
-0.0157481
-0.0152492
-0.0147502
-0.0132512
-0.0122522
-0.0117531
-0.0102541
-0.00925503
-0.00825596
-0.00725688
-0.00575778
-0.00425867
-0.00325954
-0.0017604
-0.000261249
0.00173792
0.0027371
0.0047363
0.00673551
0.00873473
0.011234
0.0132332
0.0152325
0.0182318
0.0202311
0.0227304
0.0252297
0.0282291
0.0307284
0.0337278
0.0372272
0.0402266
0.043726
0.0477254
0.0517249
0.0552244
0.0602238
0.0652233
0.0712228
0.0767224
0.0832219
0.0902215
0.097221
0.103721
0.11072
0.11722
0.122719
0.127219
0.130719
0.132718
0.133218
0.132218
0.129218
0.124217
0.118217
0.110217
0.101717
0.0917165
0.0812163
0.0702161
0.059716
0.0497158
0.0392157
0.0302156
0.0217155
0.0142155
0.0077154
0.00171536
-0.00278466
-0.00678467
-0.0102847
-0.0122846
-0.0152846
-0.0167845
-0.0187845
-0.0197844
-0.0202843
-0.0212842
-0.021784
-0.0222839
-0.0227837
-0.0222835
-0.0227834
-0.0227831
-0.0227829
-0.0232827
-0.0237824
-0.0237822
-0.0232819
-0.0232816
-0.0237812
-0.0227809
-0.0232806
-0.0232802
-0.0232798
-0.0232794
-0.022779
-0.0237786
-0.0232782
-0.0232777
-0.0232773
-0.0227768
-0.0232763
-0.0232758
-0.0232752
-0.0237747
-0.0237742
-0.0232736
-0.023773
-0.0237724
-0.0237718
-0.0242712
-0.0247705
-0.0247699
-0.0247692
-0.0247685
-0.0252678
-0.0257671
-0.0257664
-0.0257656
-0.0262649
-0.0262641
-0.0267633
-0.0267625
-0.0272617
-0.0277609
-0.0282601
-0.0277592
-0.0282584
-0.0282575
-0.0287566
-0.0292557
-0.0297548
-0.0292538
-0.0297529
-0.0297519
-0.030251
-0.03025
-0.030749
-0.030748
-0.030747
-0.0307459
-0.0312449
-0.0312438
-0.0312427
-0.0312416
-0.0312405
-0.0317394
-0.0322383
-0.0322372
-0.031736
-0.0317349
-0.0322337
-0.0322325
-0.0322313
-0.0327301
-0.0322289
-0.0322276
-0.0327264
-0.0322251
-0.0327239
-0.0322226
-0.0322213
-0.03222
-0.0327187
-0.0322173
-0.032716
-0.0327146
-0.0322133
-0.0327119
-0.0327105
-0.0327091
-0.0327077
-0.0332063
-0.0327049
-0.0327034
-0.032702
-0.0327005
-0.032699
-0.0321976
-0.0326961
-0.0326946
-0.0321931
-0.0326915
-0.03269
-0.0326884
-0.0326869
-0.0326853
-0.0326837
-0.0326822
-0.0321806
-0.0321789
-0.0316773
-0.0311757
-0.0301741
-0.0286724
-0.0276708
-0.0261691
-0.0241674
-0.0226657
-0.021664
-0.0216623
-0.0211606
-0.0201589
-0.0191572
-0.0176554
-0.0156537
-0.0131519
-0.0111502
-0.0101484
-0.0096466
-0.0101448
-0.011643
-0.0141412
-0.0176394
-0.0201375
-0.0231357
-0.0256339
-0.028132
-0.0296301
-0.0311283
-0.0316264
-0.0326245
-0.0321226
-0.0326207
-0.0326188
-0.0326169
-0.032115
-0.032613
-0.0321111
-0.0321091
-0.0321072
-0.0336052
-0.0376033
-0.0461013
-0.0560993
-0.0605973
-0.0510953
-0.0195933
0.0469087
0.143411
0.222913
0.263915
0.310917
0.336419
0.301421
0.252423
0.165925
0.0489271
-0.0150708
-0.0265687
-0.0210666
-0.0120645
-0.00856245
-0.0115603
-0.0180582
-0.0210561
-0.021554
-0.0215519
-0.0205497
-0.0205476
-0.0195455
-0.0185433
-0.0180412
-0.017039
-0.0165368
-0.0155347
-0.0145325
-0.0135303
-0.0130281
-0.0110259
-0.0105238
-0.00902157
-0.00801937
-0.00651717
-0.00501496
-0.00401275
-0.00201054
-8.3197e-006
0.0014939
0.00349612
0.00549835
0.00750058
0.0100028
0.0125051
0.0145073
0.0170095
0.0200118
0.022514
0.0255163
0.0280185
0.0315208
0.0345231
0.0380253
0.0425276
0.0460298
0.0510321
0.0555344
0.0610366
0.0670389
0.0735412
0.0805435
0.0880457
0.095548
0.10255
0.109553
0.116055
0.121057
0.125059
0.127562
0.127564
0.125066
0.122069
0.116071
0.108573
0.0990754
0.0885777
0.07808
0.0670823
0.0555846
0.0450868
0.0340891
0.0250914
0.0160937
0.00859598
0.00259826
-0.00239946
-0.00639718
-0.0103949
-0.0128926
-0.0158904
-0.0173881
-0.0183858
-0.0203835
-0.0208813
-0.020879
-0.0213768
-0.0223745
-0.0223722
-0.02237
-0.0228677
-0.0228655
-0.0228632
-0.023361
-0.0233587
-0.0233565
-0.0228543
-0.023352
-0.0228498
-0.0228476
-0.0228454
-0.0233431
-0.0228409
-0.0228387
-0.0228365
-0.0233343
-0.0228321
-0.0228299
-0.0233277
-0.0228256
-0.0233234
-0.0233212
-0.023319
-0.0233169
-0.0238147
-0.0238125
-0.0238104
-0.0238083
-0.0238061
-0.024304
-0.0248018
-0.0247997
-0.0247976
-0.0252955
-0.0257934
-0.0257913
-0.0257892
-0.0262871
-0.026285
-0.026783
-0.0272809
-0.0272788
-0.0277768
-0.0282747
-0.0282727
-0.0282706
-0.0287686
-0.0287666
-0.0292646
-0.0292626
-0.0297606
-0.0297586
-0.0297566
-0.0297546
-0.0307526
-0.0307507
-0.0307487
-0.0312468
-0.0307448
-0.0312429
-0.031241
-0.0312391
-0.0317372
-0.0312353
-0.0317334
-0.0312315
-0.0317296
-0.0312277
-0.0317259
-0.032224
-0.0317222
-0.0317204
-0.0322185
-0.0322167
-0.0322149
-0.0322131
-0.0317113
-0.0322095
-0.0322078
-0.031706
-0.0322043
-0.0322025
-0.0317008
-0.031699
-0.0316973
-0.0316956
-0.0316939
-0.0316922
-0.0316906
-0.0316889
-0.0316872
-0.0321856
-0.0316839
-0.0321823
-0.0321807
-0.0326791
-0.0321775
-0.0316759
-0.0321743
-0.0321727
-0.0316712
-0.0316696
-0.0316681
-0.0311665
-0.030165
-0.0291635
-0.027662
-0.0256605
-0.023659
-0.0226575
-0.0216561
-0.0211546
-0.0211532
-0.0201517
-0.0186503
-0.0176489
-0.0151475
-0.0131461
-0.0111447
-0.00964335
-0.00914199
-0.00964063
-0.0111393
-0.014138
-0.0166366
-0.0191353
-0.022634
-0.0256327
-0.0281315
-0.0296302
-0.0306289
-0.0311277
-0.0311264
-0.0321252
-0.031624
-0.0321228
-0.0316216
-0.0316204
-0.0311192
-0.0316181
-0.0311169
-0.0321158
-0.0346146
-0.0401135
-0.0496124
-0.0586113
-0.0571102
-0.0386091
0.010392
0.097393
0.192394
0.248395
0.288396
0.333397
0.320398
0.272899
0.2069
0.0904011
0.000902115
-0.0250969
-0.022096
-0.014095
-0.00809411
-0.0090932
-0.0150923
-0.0195914
-0.0210905
-0.0205896
-0.0200888
-0.0195879
-0.0185871
-0.0180862
-0.0170854
-0.0160846
-0.0150838
-0.014083
-0.0130822
-0.0120814
-0.0110807
-0.0100799
-0.00907918
-0.00757845
-0.00607773
-0.00507702
-0.00357632
-0.00207563
-7.49449e-005
0.00142573
0.00342639
0.00542704
0.00742768
0.00942831
0.0124289
0.0144295
0.0169301
0.0194307
0.0224313
0.0249319
0.0279324
0.030933
0.0344335
0.037434
0.0409346
0.0444351
0.0489356
0.0529361
0.0584365
0.062937
0.0689375
0.0754379
0.0824383
0.0894388
0.0969392
0.10444
0.11194
0.11794
0.123941
0.128941
0.131941
0.133442
0.133442
0.130443
0.125943
0.119443
0.110943
0.101944
0.091444
0.0804443
0.0689445
0.0579448
0.046945
0.0369452
0.0269454
0.0184456
0.0114458
0.00494603
-0.000553797
-0.00555363
-0.00905347
-0.0120533
-0.0145532
-0.0160531
-0.0175529
-0.0185528
-0.0195527
-0.0205527
-0.0210526
-0.0215525
-0.0215525
-0.0220524
-0.0225524
-0.0225523
-0.0220523
-0.0220523
-0.0225523
-0.0230523
-0.0225524
-0.0225524
-0.0225524
-0.0225525
-0.0225526
-0.0225526
-0.0225527
-0.0220528
-0.0225529
-0.022553
-0.0220531
-0.0225533
-0.0220534
-0.0225536
-0.0225537
-0.0225539
-0.0230541
-0.0225543
-0.0230545
-0.0230547
-0.0230549
-0.0230552
-0.0235554
-0.0235556
-0.0240559
-0.0245562
-0.0245565
-0.0250567
-0.025557
-0.0255574
-0.0250577
-0.025558
-0.0260583
-0.0260587
-0.026559
-0.0265594
-0.0270598
-0.0270602
-0.0275606
-0.028061
-0.0275614
-0.0285618
-0.0285622
-0.0290627
-0.0285631
-0.0290636
-0.0290641
-0.0295646
-0.0295651
-0.0300655
-0.0300661
-0.0305666
-0.0305671
-0.0300676
-0.0305682
-0.0305687
-0.0305693
-0.0310699
-0.0310705
-0.031071
-0.0310716
-0.0310723
-0.0315729
-0.0315735
-0.0315741
-0.0315748
-0.0315754
-0.0315761
-0.0315768
-0.0315774
-0.0315781
-0.0315788
-0.0315795
-0.0315802
-0.032081
-0.0315817
-0.0315824
-0.0320832
-0.0320839
-0.0315847
-0.0315855
-0.0315862
-0.031587
-0.0320878
-0.0315886
-0.0315894
-0.0315902
-0.0320911
-0.0320919
-0.0315927
-0.0320936
-0.0320944
-0.0320953
-0.0320962
-0.0315971
-0.0315979
-0.0320988
-0.0320997
-0.0321007
-0.0321016
-0.0316025
-0.0316034
-0.0316044
-0.0306053
-0.0296063
-0.0286072
-0.0266082
-0.0256091
-0.0241101
-0.0221111
-0.0216121
-0.0211131
-0.0206141
-0.0201151
-0.0191161
-0.0176171
-0.0156182
-0.0141192
-0.0121203
-0.0101213
-0.00912235
-0.00912341
-0.0106245
-0.0121255
-0.0146266
-0.0176277
-0.0201288
-0.0236299
-0.025631
-0.0276321
-0.0296332
-0.0306343
-0.0311354
-0.0316366
-0.0311377
-0.0321388
-0.03164
-0.0316411
-0.0311423
-0.0316434
-0.0311446
-0.0311457
-0.0316469
-0.0321481
-0.0351492
-0.0406504
-0.0501516
-0.0576528
-0.058154
-0.0436552
-0.0066564
0.0658424
0.157841
0.22734
0.265339
0.309338
0.336336
0.305835
0.259834
0.187833
0.0763314
-0.00166987
-0.0251711
-0.0236724
-0.0156736
-0.00967488
-0.00917614
-0.0136774
-0.0186787
-0.0211799
-0.0211812
-0.0211825
-0.0206838
-0.019685
-0.0191863
-0.0181876
-0.0176889
-0.0171902
-0.0161915
-0.0151928
-0.0146941
-0.0136954
-0.0126967
-0.011698
-0.0101993
-0.00920057
-0.00870187
-0.00770319
-0.0062045
-0.00470581
-0.00370713
-0.00220845
-0.000209768
0.00128891
0.00328759
0.00528626
0.00728494
0.00928361
0.0112823
0.0132809
0.0157796
0.0177783
0.0207769
0.0232756
0.0257743
0.0282729
0.0312716
0.0342703
0.0372689
0.0407676
0.0447662
0.0487649
0.0527635
0.0577622
0.0627608
0.0687595
0.0747582
0.0812568
0.0877555
0.0952541
0.101753
0.108251
0.11375
0.118749
0.123747
0.125746
0.127745
0.126743
0.125242
0.120741
0.115239
0.108238
0.100237
0.0902352
0.0807338
0.0697324
0.0597311
0.0492297
0.0397284
0.030227
0.0217257
0.0147243
0.00872294
0.00272158
-0.00227977
-0.00678113
-0.00978249
-0.0127838
-0.0147852
-0.0162866
-0.0182879
-0.0187893
-0.0202906
-0.020292
-0.0212933
-0.0217947
-0.0222961
-0.0222974
-0.0227988
-0.0223001
-0.0228015
-0.0228028
-0.0228042
-0.0228055
-0.0228069
-0.0228082
-0.0228096
-0.023311
-0.0228123
-0.0228137
-0.022815
-0.0223164
-0.0228177
-0.0228191
-0.0223204
-0.0228218
-0.0228231
-0.0228245
-0.0228258
-0.0223272
-0.0228285
-0.0228299
-0.0228312
-0.0233325
-0.0228339
-0.0238352
-0.0233366
-0.0233379
-0.0238393
-0.0238406
-0.0243419
-0.0243433
-0.0243446
-0.024846
-0.0253473
-0.0253486
-0.02535
-0.0258513
-0.0258527
-0.026354
-0.0268553
-0.0268567
-0.026858
-0.0273593
-0.0278606
-0.027862
-0.0278633
-0.0283646
-0.028866
-0.0288673
-0.0288686
-0.0293699
-0.0293713
-0.0298726
-0.0298739
-0.0298752
-0.0303765
-0.0303779
-0.0303792
-0.0308805
-0.0308818
-0.0308831
-0.0308844
-0.0313857
-0.031387
-0.0313883
-0.0318896
-0.031391
-0.0318923
-0.0318936
-0.0313949
-0.0318962
-0.0318975
-0.0318987
-0.0319
-0.0319013
-0.0319026
-0.0324039
-0.0319052
-0.0319065
-0.0319078
-0.031409
-0.0324103
-0.0324116
-0.0324129
-0.0324142
-0.0319154
-0.0319167
-0.032418
-0.0324192
-0.0319205
-0.0319218
-0.032423
-0.0324243
-0.0324255
-0.0324268
-0.031928
-0.0319293
-0.0319305
-0.0324318
-0.032433
-0.0324342
-0.0324355
-0.0319367
-0.0324379
-0.0324392
-0.0324404
-0.0319416
-0.0324428
-0.031944
-0.0319453
-0.0319465
-0.0309477
-0.0304489
-0.0294501
-0.0279513
-0.0269525
-0.0249537
-0.0229549
-0.0224561
-0.0214572
-0.0209584
-0.0209596
-0.0194608
-0.0184619
-0.0169631
-0.0149643
-0.0129654
-0.0114666
-0.00996772
-0.00896887
-0.00947001
-0.0109712
-0.0129723
-0.0159734
-0.0184746
-0.0214757
-0.0244768
-0.0264779
-0.028479
-0.0299801
-0.0314812
-0.0314823
-0.0314834
-0.0314845
-0.0319856
-0.0319867
-0.0319878
-0.0319888
-0.0319899
-0.031491
-0.031492
-0.0314931
-0.0324941
-0.0359952
-0.0419962
-0.0514973
-0.0589983
-0.0574993
-0.0415003
-0.00150136
0.0734976
0.165497
0.231996
0.268495
0.313494
0.335993
0.302992
0.255991
0.17999
0.0694888
-0.0050122
-0.0260132
-0.0225141
-0.014515
-0.00901599
-0.00901692
-0.0140178
-0.0185188
-0.0210197
-0.0210206
-0.0205215
-0.0205224
-0.0190233
-0.0190242
-0.0180251
-0.0175259
-0.0160268
-0.0155277
-0.0145285
-0.0135294
-0.0125302
-0.012031
-0.0105319
-0.00953271
-0.00803353
-0.00703434
-0.00603515
-0.00453595
-0.00303675
-0.00103754
0.000461676
0.0019609
0.00346013
0.00545936
0.0074586
0.00995785
0.0119571
0.0144564
0.0169556
0.0189549
0.0219542
0.0244535
0.0269528
0.0299521
0.0329514
0.0359507
0.03995
0.0429493
0.0469487
0.050948
0.0549473
0.0599467
0.0654461
0.0709454
0.0779448
0.0839442
0.0909435
0.0979429
0.105442
0.111942
0.118441
0.123941
0.12844
0.131439
0.133439
0.132938
0.130438
0.126437
0.120437
0.113436
0.104436
0.0944351
0.0834346
0.0724341
0.0614336
0.0504331
0.0404326
0.0309321
0.0224317
0.0144312
0.00743074
0.00193029
-0.00307016
-0.0070706
-0.010071
-0.0130715
-0.0155719
-0.0175723
-0.0180727
-0.0190731
-0.0205735
-0.0210739
-0.0220743
-0.0220746
-0.022575
-0.0225754
-0.0225757
-0.0230761
-0.0235764
-0.0230768
-0.0230771
-0.0230774
-0.0230777
-0.023078
-0.0225783
-0.0230786
-0.0230789
-0.0230792
-0.0230795
-0.0230798
-0.0230801
-0.0230803
-0.0230806
-0.0235808
-0.0230811
-0.0230813
-0.0235815
-0.0230818
-0.023582
-0.0235822
-0.0235824
-0.0240826
-0.0235828
-0.023583
-0.0240832
-0.0240834
-0.0240836
-0.0245837
-0.0245839
-0.0250841
-0.0255842
-0.0255844
-0.0260845
-0.0260846
-0.0260848
-0.0270849
-0.027085
-0.0270851
-0.0275852
-0.0280853
-0.0280854
-0.0280855
-0.0285856
-0.0285857
-0.0285858
-0.0290858
-0.0295859
-0.0295859
-0.029586
-0.030086
-0.0305861
-0.0300861
-0.0305862
-0.0305862
-0.0305862
-0.0310862
-0.0305862
-0.0310862
-0.0310862
-0.0315862
-0.0320862
-0.0315862
-0.0320862
-0.0320861
-0.0320861
-0.0320861
-0.031586
-0.031586
-0.0325859
-0.0320859
-0.0320858
-0.0320857
-0.0320857
-0.0320856
-0.0320855
-0.0315854
-0.0320853
-0.0325852
-0.0325851
-0.032085
-0.0325849
-0.0325847
-0.0325846
-0.0320845
-0.0320844
-0.0325842
-0.0325841
-0.0325839
-0.0325838
-0.0325836
-0.0320834
-0.0325832
-0.0325831
-0.0320829
-0.0325827
-0.0320825
-0.0325823
-0.0320821
-0.0320819
-0.0320817
-0.0325815
-0.0320812
-0.031581
-0.0320808
-0.0305805
-0.0300803
-0.02908
-0.0275798
-0.0260795
-0.0240792
-0.022579
-0.0215787
-0.0210784
-0.0205781
-0.0200778
-0.0190775
-0.0170772
-0.0155769
-0.0135766
-0.0110763
-0.010076
-0.00907563
-0.0100753
-0.011575
-0.0145746
-0.0170743
-0.0200739
-0.0225735
-0.0260732
-0.0280728
-0.0300724
-0.030572
-0.0315717
-0.0325713
-0.0320709
-0.0325705
-0.0325701
-0.0325696
-0.0325692
-0.0320688
-0.0315684
-0.0320679
-0.0320675
-0.034067
-0.0380666
-0.0470661
-0.0565657
-0.0595652
-0.0490647
-0.0140643
0.0569362
0.153937
0.227937
0.267938
0.315438
0.334439
0.295439
0.24444
0.15144
0.0374408
-0.0185586
-0.0265581
-0.0195575
-0.011557
-0.00855644
-0.0125559
-0.0180553
-0.0215547
-0.0215542
-0.0220536
-0.020553
-0.0200524
-0.0195518
-0.0190512
-0.0180506
-0.01755
-0.0165493
-0.0155487
-0.0145481
-0.0135474
-0.0125468
-0.0120462
-0.0100455
-0.00904485
-0.00804418
-0.00654352
-0.00504285
-0.00354217
-0.00204149
-0.000540805
0.00145989
0.00346058
0.00546128
0.00746199
0.0094627
0.0124634
0.0144641
0.0169649
0.0199656
0.0224663
0.0249671
0.0284678
0.0309685
0.0344693
0.0379701
0.0419708
0.0454716
0.0494723
0.0549731
0.0604739
0.0659747
0.0724755
0.0789763
0.0864771
0.0934779
0.100979
0.108479
0.11448
0.119481
0.123482
0.125983
0.126984
0.125984
0.122985
0.117986
0.110487
0.102488
0.0929886
0.0819895
0.0709903
0.0599912
0.048992
0.0384929
0.0289938
0.0199947
0.0124955
0.00599641
-2.70162e-006
-0.00450181
-0.00900092
-0.0125
-0.0144991
-0.0169982
-0.0179973
-0.0189964
-0.0204955
-0.0209946
-0.0219937
-0.0219928
-0.0224919
-0.0224909
-0.02249
-0.0224891
-0.0229882
-0.0229872
-0.0229863
-0.0229854
-0.0229844
-0.0229835
-0.0234825
-0.0224816
-0.0229807
-0.0229797
-0.0229788
-0.0229778
-0.0229769
-0.0224759
-0.0229749
-0.022974
-0.022973
-0.0229721
-0.0234711
-0.0229701
-0.0229692
-0.0234682
-0.0234672
-0.0234663
-0.0239653
-0.0234643
-0.0239634
-0.0244624
-0.0244614
-0.0249604
-0.0249594
-0.0254585
-0.0254575
-0.0254565
-0.0254555
-0.0264546
-0.0264536
-0.0264526
-0.0269516
-0.0269506
-0.0279496
-0.0279487
-0.0279477
-0.0279467
-0.0284457
-0.0289447
-0.0284437
-0.0294428
-0.0289418
-0.0299408
-0.0299398
-0.0294388
-0.0299378
-0.0304368
-0.0309359
-0.0304349
-0.0304339
-0.0309329
-0.0309319
-0.0309309
-0.03143
-0.030929
-0.031428
-0.031927
-0.031926
-0.031925
-0.0314241
-0.0319231
-0.0319221
-0.0319211
-0.0324201
-0.0319192
-0.0319182
-0.0319172
-0.0319162
-0.0324153
-0.0324143
-0.0324133
-0.0319123
-0.0324114
-0.0319104
-0.0324094
-0.0319085
-0.0324075
-0.0319065
-0.0324056
-0.0319046
-0.0319036
-0.0319027
-0.0324017
-0.0324008
-0.0323998
-0.0323989
-0.0323979
-0.0323969
-0.031896
-0.032395
-0.0323941
-0.0323931
-0.0318922
-0.0323912
-0.0318903
-0.0323894
-0.0318884
-0.0318875
-0.0313865
-0.0303856
-0.0293847
-0.0278837
-0.0263828
-0.0243819
-0.0228809
-0.02188
-0.0208791
-0.0208781
-0.0208772
-0.0198763
-0.0183754
-0.0168745
-0.0148735
-0.0128726
-0.0108717
-0.0093708
-0.00936988
-0.010369
-0.0113681
-0.0138672
-0.0163663
-0.0193653
-0.0228644
-0.0248635
-0.0273626
-0.0288617
-0.0303609
-0.03136
-0.0313591
-0.0323582
-0.0318573
-0.0318564
-0.0318555
-0.0318546
-0.0313537
-0.0318529
-0.031852
-0.0318511
-0.0323502
-0.0343494
-0.0393485
-0.0488476
-0.0568467
-0.0583459
-0.046345
-0.0108442
0.0591567
0.151658
0.224658
0.263659
0.30816
0.336161
0.307162
0.260663
0.189664
0.0781644
-0.00133477
-0.0253339
-0.0233331
-0.0158322
-0.00883141
-0.00883057
-0.0133297
-0.0183289
-0.0208281
-0.0208272
-0.0208264
-0.0198256
-0.0188248
-0.018324
-0.0178231
-0.0168223
-0.0163215
-0.0153207
-0.0143199
-0.0133191
-0.0123183
-0.0113175
-0.0103167
-0.00981586
-0.00781506
-0.00731427
-0.00581347
-0.00481268
-0.00331189
-0.0018111
0.000189685
0.00169047
0.00369125
0.00569203
0.00719281
0.00969358
0.0116944
0.0136951
0.0161959
0.0186967
0.0206974
0.0236982
0.0256989
0.0286997
0.0317005
0.0347012
0.037702
0.0412027
0.0447035
0.0487042
0.0527049
0.0572057
0.0617064
0.0672071
0.0727079
0.0792086
0.0857093
0.09221
0.0992108
0.106211
0.113212
0.118713
0.124214
0.128714
0.131715
0.132716
0.132716
0.131217
0.127718
0.122218
0.115719
0.10772
0.0982205
0.0887212
0.0782219
0.0672225
0.0572232
0.0472238
0.0372245
0.0287252
0.0207258
0.0132265
0.0072271
0.00172774
-0.00277162
-0.00727099
-0.00977036
-0.0127697
-0.0147691
-0.0162685
-0.0177679
-0.0192673
-0.0202667
-0.0207661
-0.0212655
-0.0212649
-0.0217643
-0.0222637
-0.0222631
-0.0222625
-0.0222619
-0.0222614
-0.0222608
-0.0232603
-0.0227597
-0.0232591
-0.0227586
-0.022758
-0.0222575
-0.022757
-0.0222564
-0.0227559
-0.0227554
-0.0227549
-0.0222544
-0.0222539
-0.0222533
-0.0227529
-0.0227524
-0.0227519
-0.0232514
-0.0227509
-0.0227504
-0.02325
-0.0232495
-0.023249
-0.0232486
-0.0237481
-0.0237477
-0.0237472
-0.0237468
-0.0242464
-0.024246
-0.0247455
-0.0247451
-0.0247447
-0.0252443
-0.0252439
-0.0257435
-0.0252431
-0.0262428
-0.0262424
-0.026742
-0.0267417
-0.0267413
-0.0272409
-0.0277406
-0.0277402
-0.0277399
-0.0277396
-0.0282393
-0.0287389
-0.0287386
-0.0292383
-0.029738
-0.0292377
-0.0297374
-0.0297371
-0.0302368
-0.0297366
-0.0297363
-0.030736
-0.0307358
-0.0307355
-0.0307353
-0.031235
-0.0307348
-0.0312346
-0.0312344
-0.0307341
-0.0312339
-0.0312337
-0.0317335
-0.0312333
-0.0317331
-0.0317329
-0.0317328
-0.0322326
-0.0317324
-0.0317323
-0.0317321
-0.032232
-0.0317318
-0.0317317
-0.0322316
-0.0317314
-0.0322313
-0.0317312
-0.0322311
-0.031731
-0.0317309
-0.0322308
-0.0322307
-0.0317306
-0.0322306
-0.0317305
-0.0322304
-0.0322304
-0.0322303
-0.0317303
-0.0322303
-0.0322302
-0.0317302
-0.0317302
-0.0322301
-0.0322301
-0.0322301
-0.0322301
-0.0317301
-0.0317301
-0.0322302
-0.0322302
-0.0322302
-0.0322302
-0.0322303
-0.0317303
-0.0317304
-0.0317304
-0.0312305
-0.0307305
-0.0292306
-0.0282307
-0.0277307
-0.0262308
-0.0247309
-0.023231
-0.0217311
-0.0217312
-0.0212313
-0.0207314
-0.0202315
-0.0197317
-0.0182318
-0.0167319
-0.0147321
-0.0127322
-0.0112323
-0.0102325
-0.00923265
-0.00923281
-0.010233
-0.0122331
-0.0142333
-0.0157335
-0.0187337
-0.0217339
-0.023734
-0.0262342
-0.0282344
-0.0297346
-0.0307348
-0.031235
-0.0317353
-0.0317355
-0.0317357
-0.0317359
-0.0322362
-0.0317364
-0.0322366
-0.0317369
-0.0317371
-0.0312374
-0.0317376
-0.0317379
-0.0327381
-0.0357384
-0.0412387
-0.0497389
-0.0572392
-0.0592395
-0.0517397
-0.02824
0.0182597
0.0917594
0.172759
0.230259
0.264259
0.303258
0.334258
0.321758
0.282257
0.236757
0.156257
0.0587563
-0.00474397
-0.0252443
-0.0247446
-0.017745
-0.0112453
-0.00874562
-0.010246
-0.0157463
-0.0192466
-0.021247
-0.0217473
-0.0212477
-0.020748
-0.0202484
-0.0192487
-0.0187491
-0.0182495
-0.0172498
-0.0167502
-0.0162505
-0.0157509
-0.0147513
-0.0137517
-0.013252
-0.0122524
-0.0117528
-0.0107532
-0.00975356
-0.00875394
-0.00775433
-0.00625472
-0.00525511
-0.0042555
-0.0032559
-0.00175629
0.000243308
0.00174291
0.00274251
0.0042421
0.0062417
0.00824129
0.0102409
0.0117405
0.0137401
0.0157397
0.0182392
0.0207388
0.0222384
0.024738
0.0272376
0.0292371
0.0322367
0.0347363
0.0377359
0.0402354
0.043735
0.0477346
0.0507341
0.0552337
0.0597333
0.0642328
0.0692324
0.074732
0.0807315
0.0867311
0.0922306
0.0992302
0.10473
0.109729
0.115229
0.119728
0.123228
0.125727
0.127227
0.127727
0.125726
0.123726
0.119725
0.114225
0.107724
0.100724
0.0922234
0.0832229
0.0742224
0.065222
0.0562215
0.046721
0.0387206
0.0307201
0.0227196
0.0167191
0.0102186
0.00471817
0.000217686
-0.0037828
-0.00678328
-0.0102838
-0.0122843
-0.0142847
-0.0162852
-0.0177857
-0.0187862
-0.0197867
-0.0202872
-0.0207877
-0.0212882
-0.0217887
-0.0222892
-0.0222897
-0.0227902
-0.0227907
-0.0227912
-0.0227917
-0.0232922
-0.0232928
-0.0227933
-0.0227938
-0.0232943
-0.0227948
-0.0227953
-0.0227959
-0.0227964
-0.0227969
-0.0227974
-0.022798
-0.0227985
-0.022799
-0.0227996
-0.0233001
-0.0228006
-0.0228012
-0.0228017
-0.0233023
-0.0228028
-0.0228034
-0.0233039
-0.0233045
-0.022805
-0.0233056
-0.0238061
-0.0238067
-0.0238072
-0.0238078
-0.0233084
-0.0238089
-0.0243095
-0.02381
-0.0248106
-0.0243112
-0.0248118
-0.0248123
-0.0253129
-0.0258135
-0.0253141
-0.0263147
-0.0263152
-0.0263158
-0.0263164
-0.026817
-0.0273176
-0.0273182
-0.0278188
-0.0283194
-0.02782
-0.0283206
-0.0283212
-0.0288218
-0.0283224
-0.028823
-0.0293236
-0.0293242
-0.0293248
-0.0298254
-0.029826
-0.0298267
-0.0303273
-0.0303279
-0.0303285
-0.0308291
-0.0303298
-0.0308304
-0.030831
-0.0313316
-0.0313323
-0.0313329
-0.0313335
-0.0313342
-0.0318348
-0.0313354
-0.0318361
-0.0313367
-0.0313373
-0.031838
-0.0318386
-0.0318393
-0.0318399
-0.0318406
-0.0318412
-0.0323419
-0.0323425
-0.0323432
-0.0323438
-0.0318445
-0.0323451
-0.0323458
-0.0323464
-0.0323471
-0.0323477
-0.0323484
-0.0318491
-0.0323497
-0.0323504
-0.031851
-0.0323517
-0.0323524
-0.032353
-0.0323537
-0.0318543
-0.031855
-0.0328557
-0.0323563
-0.031857
-0.0328577
-0.0318583
-0.032359
-0.0323597
-0.0323603
-0.031861
-0.0318616
-0.0323623
-0.031863
-0.0323636
-0.0318643
-0.032365
-0.0323656
-0.0318663
-0.031867
-0.0313676
-0.0308683
-0.0298689
-0.0293696
-0.0283703
-0.0268709
-0.0253716
-0.0238722
-0.0228729
-0.0213736
-0.0213742
-0.0208749
-0.0203755
-0.0203762
-0.0188768
-0.0183775
-0.0163781
-0.0143788
-0.0128794
-0.0108801
-0.0093807
-0.00938134
-0.00988199
-0.0103826
-0.0123833
-0.0143839
-0.0168845
-0.0193852
-0.0218858
-0.0243864
-0.026387
-0.0283877
-0.0293883
-0.0303889
-0.0313895
-0.0318901
-0.0318908
-0.0318914
-0.031892
-0.0323926
-0.0318932
-0.0318938
-0.0318944
-0.031895
-0.0318956
-0.0318962
-0.0318968
-0.0328973
-0.0358979
-0.0413985
-0.0493991
-0.0573996
-0.0594002
-0.0509008
-0.0274014
0.0205981
0.0955975
0.177097
0.233596
0.267096
0.307095
0.336095
0.319594
0.279094
0.230093
0.144093
0.0465921
-0.00990838
-0.0254089
-0.0229094
-0.0164099
-0.00991042
-0.00841092
-0.0114114
-0.0164119
-0.0194124
-0.0209129
-0.0214134
-0.0204138
-0.0199143
-0.0194148
-0.0189153
-0.0179157
-0.0174162
-0.0164166
-0.0159171
-0.0154175
-0.013918
-0.0139184
-0.0129188
-0.0119193
-0.0104197
-0.0099201
-0.00842051
-0.00742092
-0.00592133
-0.00492173
-0.00392213
-0.00292252
-0.000922906
7.67101e-005
0.00157633
0.00357596
0.00507559
0.00707522
0.00857486
0.0110745
0.0125741
0.0150738
0.0170735
0.0190731
0.0215728
0.0245725
0.0265721
0.0290718
0.0315715
0.0350712
0.0375709
0.0400706
0.0435703
0.04707
0.0510697
0.0550694
0.0595691
0.0645688
0.0690686
0.0750683
0.080568
0.0870678
0.0935675
0.100067
0.106567
0.113067
0.119067
0.124066
0.128566
0.131566
0.133066
0.133565
0.132565
0.129565
0.125565
0.120065
0.113064
0.104564
0.0950641
0.0850639
0.0755637
0.0650635
0.0550634
0.0455632
0.036563
0.0280629
0.0205627
0.0130626
0.00706241
0.00156227
-0.00243787
-0.006438
-0.00993813
-0.0119383
-0.0144384
-0.0164385
-0.0179386
-0.0189387
-0.0194388
-0.020439
-0.0209391
-0.0214392
-0.0219393
-0.0224393
-0.0224394
-0.0224395
-0.0229396
-0.0234397
-0.0229398
-0.0229398
-0.0229399
-0.02244
-0.02294
-0.0229401
-0.0234402
-0.0229402
-0.0229403
-0.0229403
-0.0229404
-0.0224404
-0.0229405
-0.0229405
-0.0229405
-0.0229406
-0.0229406
-0.0234407
-0.0229407
-0.0229407
-0.0229407
-0.0229408
-0.0234408
-0.0239408
-0.0239408
-0.0234408
-0.0234408
-0.0234408
-0.0244408
-0.0239409
-0.0244409
-0.0249409
-0.0249409
-0.0249409
-0.0254409
-0.0259408
-0.0259408
-0.0259408
-0.0264408
-0.0259408
-0.0264408
-0.0269408
-0.0274408
-0.0274407
-0.0279407
-0.0279407
-0.0284407
-0.0284407
-0.0289406
-0.0289406
-0.0294406
-0.0294406
-0.0294405
-0.0299405
-0.0299405
-0.0299404
-0.0304404
-0.0304404
-0.0304403
-0.0309403
-0.0304403
-0.0309402
-0.0314402
-0.0314401
-0.0314401
-0.0314401
-0.03144
-0.03194
-0.0319399
-0.0314399
-0.0319398
-0.0319398
-0.0314397
-0.0319397
-0.0319396
-0.0319396
-0.0319395
-0.0319395
-0.0319394
-0.0319394
-0.0324393
-0.0324393
-0.0324392
-0.0324392
-0.0324391
-0.0324391
-0.031939
-0.032439
-0.0324389
-0.0324389
-0.0319388
-0.0324388
-0.0324387
-0.0319386
-0.0324386
-0.0324385
-0.0324385
-0.0324384
-0.0324384
-0.0324383
-0.0324382
-0.0319382
-0.0329381
-0.0324381
-0.032438
-0.032438
-0.0324379
-0.0324378
-0.0324378
-0.0324377
-0.0319377
-0.0324376
-0.0314375
-0.0309375
-0.0304374
-0.0289374
-0.0274373
-0.0264372
-0.0249372
-0.0234371
-0.021937
-0.021437
-0.0214369
-0.0209369
-0.0199368
-0.0189367
-0.0174367
-0.0154366
-0.0134365
-0.0114365
-0.0099364
-0.00943634
-0.00943627
-0.0109362
-0.0129361
-0.0159361
-0.018436
-0.0214359
-0.0244359
-0.0269358
-0.0284357
-0.0299357
-0.0309356
-0.0319355
-0.0319355
-0.0324354
-0.0324353
-0.0324352
-0.0324352
-0.0324351
-0.032435
-0.031935
-0.0324349
-0.0319348
-0.0329347
-0.0359347
-0.0424346
-0.0519345
-0.0594344
-0.0574343
-0.0394343
0.00406582
0.0820659
0.175566
0.237066
0.274566
0.320066
0.334566
0.296566
0.248066
0.162567
0.0510666
-0.0129333
-0.0264332
-0.0214331
-0.013933
-0.00893291
-0.0104328
-0.0159327
-0.0204326
-0.0214325
-0.0219325
-0.0214324
-0.0204323
-0.0194322
-0.0189321
-0.018432
-0.0179319
-0.0169318
-0.0164317
-0.0154316
-0.0144315
-0.0134314
-0.0129313
-0.0114312
-0.00993105
-0.00943094
-0.00793083
-0.00643072
-0.00543061
-0.0039305
-0.00243039
-0.000430277
0.00106984
0.00256995
0.00457007
0.00657018
0.0080703
0.0110704
0.0135705
0.0155707
0.0180708
0.0205709
0.022571
0.0260712
0.0285713
0.0315714
0.0345715
0.0380717
0.0420718
0.0455719
0.050072
0.0545722
0.0590723
0.0650724
0.0710726
0.0775727
0.0845729
0.091573
0.0985731
0.105573
0.112073
0.118074
0.122574
0.125574
0.127574
0.127074
0.125574
0.121574
0.116075
0.108575
0.100075
0.090575
0.0800752
0.0685753
0.0580755
0.0470756
0.0375758
0.0285759
0.0195761
0.0120762
0.00557637
-0.000423472
-0.00442332
-0.00792316
-0.011423
-0.0139228
-0.0164227
-0.0179225
-0.0189224
-0.0199222
-0.020922
-0.0214219
-0.0219217
-0.0224216
-0.0224214
-0.0229212
-0.0229211
-0.0229209
-0.0229208
-0.0224206
-0.0229204
-0.0229203
-0.0229201
-0.0234199
-0.0234198
-0.0229196
-0.0229195
-0.0234193
-0.0229191
-0.023419
-0.0229188
-0.0229186
-0.0229185
-0.0234183
-0.0229181
-0.022918
-0.0229178
-0.0234176
-0.0234175
-0.0234173
-0.0229172
-0.023417
-0.0239168
-0.0244167
-0.0244165
-0.0239163
-0.0244162
-0.024416
-0.0249159
-0.0254157
-0.0254155
-0.0259154
-0.0259152
-0.0259151
-0.0264149
-0.0264147
-0.0269146
-0.0274144
-0.0279143
-0.0279141
-0.0279139
-0.0284138
-0.0284136
-0.0289135
-0.0289133
-0.0289132
-0.029913
-0.0294129
-0.0299127
-0.0299126
-0.0304124
-0.0304122
-0.0304121
-0.0304119
-0.0304118
-0.0309117
-0.0309115
-0.0309114
-0.0314112
-0.0314111
-0.0319109
-0.0314108
-0.0319106
-0.0314105
-0.0314103
-0.0319102
-0.03191
-0.0319099
-0.0319098
-0.0319096
-0.0324095
-0.0319093
-0.0319092
-0.0319091
-0.0319089
-0.0319088
-0.0319087
-0.0324085
-0.0324084
-0.0319083
-0.0324081
-0.031908
-0.0324079
-0.0324077
-0.0324076
-0.0319075
-0.0319073
-0.0324072
-0.0324071
-0.0319069
-0.0324068
-0.0319067
-0.0319066
-0.0319064
-0.0324063
-0.0324062
-0.032406
-0.0324059
-0.0324058
-0.0329057
-0.0319055
-0.0324054
-0.0319053
-0.0319052
-0.0309051
-0.0299049
-0.0294048
-0.0279047
-0.0259046
-0.0244044
-0.0229043
-0.0219042
-0.0214041
-0.020904
-0.0204038
-0.0194037
-0.0184036
-0.0164035
-0.0139034
-0.0119032
-0.0104031
-0.00990301
-0.00940289
-0.0104028
-0.0124027
-0.0149025
-0.0179024
-0.0204023
-0.0234022
-0.0264021
-0.0284019
-0.0299018
-0.0309017
-0.0319016
-0.0319015
-0.0319013
-0.0324012
-0.0324011
-0.032401
-0.0319009
-0.0319008
-0.0319006
-0.0314005
-0.0319004
-0.0329003
-0.0364001
-0.0439
-0.0538999
-0.0593998
-0.0548997
-0.0313995
0.0221006
0.109601
0.198101
0.249101
0.287601
0.331601
0.324101
0.279101
0.223102
0.119102
0.0191018
-0.021398
-0.0253979
-0.0178978
-0.0108977
-0.00839753
-0.0118974
-0.0178973
-0.0208971
-0.020897
-0.0203969
-0.0198967
-0.0193966
-0.0188965
-0.0173963
-0.0173962
-0.0158961
-0.0153959
-0.0143958
-0.0133957
-0.0128955
-0.0118954
-0.0103953
-0.00989512
-0.00839498
-0.00689484
-0.0063947
-0.00439456
-0.00339442
-0.00139428
0.000605864
0.00210601
0.00360615
0.00610629
0.00810644
0.00960658
0.0121067
0.0141069
0.017107
0.0196072
0.0221073
0.0246075
0.0276076
0.0296077
0.0331079
0.036608
0.0396082
0.0426083
0.0466085
0.0506086
0.0551088
0.0601089
0.0651091
0.0706092
0.0766094
0.0836095
0.0906097
0.0976098
0.10461
0.11161
0.11761
0.12361
0.128111
0.131111
0.133611
0.133111
0.130611
0.127611
0.122111
0.115112
0.106112
0.0966119
0.0866121
0.0756122
0.0651124
0.0541125
0.0436127
0.0341128
0.025613
0.0171131
0.0106133
0.00461341
-0.000886442
-0.0053863
-0.00838615
-0.011386
-0.0143859
-0.0158857
-0.0178856
-0.0188854
-0.0193853
-0.0208852
-0.021385
-0.0213849
-0.0223848
-0.0223846
-0.0223845
-0.0223844
-0.0228842
-0.0228841
-0.022884
-0.0228839
-0.0228837
-0.0228836
-0.0228835
-0.0233834
-0.0228832
-0.0228831
-0.022883
-0.0223829
-0.0228828
-0.0228827
-0.0228826
-0.0228825
-0.0223823
-0.0228822
-0.0228821
-0.023382
-0.0228819
-0.0228818
-0.0233817
-0.0228817
-0.0233816
-0.0233815
-0.0233814
-0.0238813
-0.0238812
-0.0243811
-0.0243811
-0.024381
-0.0243809
-0.0248808
-0.0253808
-0.0253807
-0.0253806
-0.0253806
-0.0263805
-0.0263805
-0.0268804
-0.0263804
-0.0273803
-0.0273803
-0.0278802
-0.0278802
-0.0283802
-0.0283801
-0.0283801
-0.0283801
-0.02888
-0.02888
-0.02938
-0.02938
-0.02988
-0.0298799
-0.0303799
-0.0303799
-0.0308799
-0.0308799
-0.0303799
-0.0308799
-0.0308799
-0.03138
-0.03088
-0.03138
-0.03138
-0.03188
-0.0318801
-0.0313801
-0.0313801
-0.0318802
-0.0318802
-0.0313803
-0.0318803
-0.0318804
-0.0318804
-0.0318805
-0.0318805
-0.0323806
-0.0323807
-0.0323807
-0.0318808
-0.0318809
-0.031881
-0.0323811
-0.0323812
-0.0318813
-0.0318813
-0.0323814
-0.0318815
-0.0318817
-0.0323818
-0.0323819
-0.031882
-0.0323821
-0.0323822
-0.0323824
-0.0318825
-0.0318826
-0.0323828
-0.0323829
-0.032383
-0.0323832
-0.0323833
-0.0323835
-0.0318836
-0.0323838
-0.032384
-0.0318841
-0.0318843
-0.0318845
-0.0313847
-0.0303848
-0.030385
-0.0283852
-0.0278854
-0.0263856
-0.0243858
-0.022886
-0.0218862
-0.0213864
-0.0208866
-0.0203868
-0.019887
-0.0188872
-0.0168875
-0.0153877
-0.0133879
-0.0118882
-0.00988839
-0.00938862
-0.00988886
-0.0103891
-0.0128894
-0.0148896
-0.0173899
-0.0198901
-0.0223904
-0.0258906
-0.0273909
-0.0293912
-0.0303914
-0.0313917
-0.031392
-0.0318922
-0.0323925
-0.0318928
-0.0323931
-0.0318934
-0.0318937
-0.031894
-0.0318942
-0.0313945
-0.0318948
-0.0328951
-0.0358955
-0.0413958
-0.0498961
-0.0578964
-0.0588967
-0.047397
-0.0153973
0.0466023
0.134102
0.210602
0.254101
0.291601
0.331101
0.3256
0.2836
0.2336
0.143099
0.041099
-0.0144013
-0.0264017
-0.022402
-0.0144024
-0.00890272
-0.00990307
-0.0149034
-0.0189038
-0.0214041
-0.0219045
-0.0209049
-0.0204052
-0.0199056
-0.019406
-0.0189063
-0.0184067
-0.0179071
-0.0169075
-0.0159078
-0.0154082
-0.0144086
-0.013409
-0.0124094
-0.0114097
-0.0104101
-0.00941051
-0.0084109
-0.00691129
-0.00591169
-0.00491208
-0.00341247
-0.00191287
-0.000413266
0.00158634
0.00308594
0.00458553
0.00658513
0.00858473
0.0105843
0.0125839
0.0145835
0.0170831
0.0195827
0.0220823
0.0245819
0.0275815
0.029581
0.0330806
0.0360802
0.0385798
0.0420794
0.0455789
0.0495785
0.0540781
0.0590777
0.0640772
0.0695768
0.0760764
0.082076
0.0885755
0.0950751
0.101575
0.108574
0.113574
0.119073
0.123073
0.126072
0.127072
0.127572
0.125571
0.121571
0.11707
0.11107
0.103069
0.0940689
0.0850685
0.075068
0.0645676
0.0545671
0.0450667
0.0360662
0.0270658
0.0195653
0.0125649
0.00606441
0.000563956
-0.0039365
-0.00693697
-0.0109374
-0.0134379
-0.0149384
-0.0174388
-0.0184393
-0.0189398
-0.0204402
-0.0209407
-0.0214412
-0.0214416
-0.0219421
-0.0224426
-0.0229431
-0.0229436
-0.022444
-0.0229445
-0.022945
-0.0229455
-0.022946
-0.0229465
-0.0234469
-0.0234474
-0.0229479
-0.0229484
-0.0229489
-0.0229494
-0.0229499
-0.0229504
-0.0229509
-0.0229514
-0.0234519
-0.0229524
-0.0229529
-0.0234534
-0.0229539
-0.0229544
-0.0234549
-0.0234554
-0.0234559
-0.0234565
-0.023457
-0.0234575
-0.023958
-0.0239585
-0.024459
-0.0239596
-0.0244601
-0.0249606
-0.0254611
-0.0249616
-0.0249622
-0.0254627
-0.0259632
-0.0264638
-0.0264643
-0.0264648
-0.0269654
-0.0274659
-0.0269664
-0.027967
-0.0279675
-0.0284681
-0.0284686
-0.0279691
-0.0289697
-0.0289702
-0.0294708
-0.0294713
-0.0294719
-0.0294724
-0.029973
-0.0304735
-0.0304741
-0.0304746
-0.0304752
-0.0309757
-0.0314763
-0.0309769
-0.0314774
-0.031478
-0.0314785
-0.0319791
-0.0314797
-0.0319802
-0.0319808
-0.0319814
-0.0319819
-0.0319825
-0.0319831
-0.0319836
-0.0324842
-0.0319848
-0.0319853
-0.0324859
-0.0319865
-0.032487
-0.0324876
-0.0319882
-0.0324887
-0.0324893
-0.0324899
-0.0319905
-0.031991
-0.0324916
-0.0319922
-0.0324927
-0.0324933
-0.0324939
-0.0324945
-0.031995
-0.0319956
-0.0319962
-0.0324967
-0.0324973
-0.0324979
-0.0324984
-0.032499
-0.0324996
-0.0320002
-0.0330007
-0.0325013
-0.0325019
-0.0320024
-0.032003
-0.0325035
-0.0320041
-0.0320047
-0.0320052
-0.0315058
-0.0305063
-0.0295069
-0.0285075
-0.027008
-0.0255086
-0.0235091
-0.0225097
-0.0220102
-0.0215108
-0.0205113
-0.0205118
-0.0190124
-0.0180129
-0.0160135
-0.014514
-0.0120145
-0.0105151
-0.0100156
-0.00951611
-0.0105166
-0.0125172
-0.0145177
-0.0170182
-0.0200187
-0.0225192
-0.0255197
-0.0275202
-0.0295207
-0.0305212
-0.0315217
-0.0320222
-0.0320227
-0.0320232
-0.0325237
-0.0325242
-0.0325247
-0.0315251
-0.0320256
-0.0320261
-0.0315265
-0.032027
-0.0340275
-0.0385279
-0.0465284
-0.0555288
-0.0600293
-0.0525297
-0.0255301
0.0314694
0.119469
0.203469
0.250968
0.290968
0.332467
0.323967
0.279967
0.224466
0.122966
0.0219654
-0.021035
-0.0255354
-0.0190357
-0.0110361
-0.00853647
-0.0115368
-0.0170372
-0.0205375
-0.0215379
-0.0210382
-0.0205385
-0.0195388
-0.0195392
-0.0185395
-0.0175398
-0.0160401
-0.0155404
-0.0150407
-0.014541
-0.0130412
-0.0120415
-0.0110418
-0.00954203
-0.00854228
-0.00804253
-0.00654277
-0.00454301
-0.00304324
-0.00204346
-4.36795e-005
0.00145611
0.00295591
0.00545571
0.00695552
0.00895533
0.0119552
0.013955
0.0159548
0.0189547
0.0214545
0.0244544
0.0264542
0.0299541
0.032954
0.0359539
0.0394537
0.0429536
0.0464535
0.0509535
0.0549534
0.0599533
0.0659532
0.0714532
0.0774531
0.0844531
0.091953
0.098953
0.106453
0.112953
0.119953
0.125453
0.129953
0.132453
0.133453
0.132953
0.129453
0.125453
0.118453
0.110953
0.100953
0.0904534
0.0794534
0.0679535
0.0569536
0.0459537
0.0359538
0.026454
0.0184541
0.0104542
0.00395436
-0.00104549
-0.00554533
-0.00954516
-0.012045
-0.0140448
-0.0165446
-0.0180444
-0.0190442
-0.020544
-0.0205438
-0.0215436
-0.0220433
-0.0220431
-0.0225428
-0.0225426
-0.0230423
-0.023042
-0.0230417
-0.0230414
-0.0230411
-0.0230408
-0.0230405
-0.0235402
-0.0230399
-0.0230395
-0.0230392
-0.0230388
-0.0230385
-0.0230381
-0.0230377
-0.0235373
-0.0230369
-0.0230365
-0.0235361
-0.0230357
-0.0230353
-0.0235348
-0.0235344
-0.023534
-0.0235335
-0.023533
-0.0245326
-0.0240321
-0.0240316
-0.0245311
-0.0250306
-0.0250301
-0.0250296
-0.025529
-0.0260285
-0.026028
-0.0260274
-0.0265268
-0.0270263
-0.0270257
-0.0275251
-0.0280245
-0.0285239
-0.0285233
-0.0285227
-0.0290221
-0.0290215
-0.0290208
-0.0295202
-0.0300195
-0.0300189
-0.0300182
-0.0305175
-0.0305168
-0.0305162
-0.0310155
-0.0310148
-0.031514
-0.0310133
-0.0315126
-0.0315118
-0.0315111
-0.0315104
-0.0320096
-0.0320088
-0.0320081
-0.0320073
-0.0315065
-0.0320057
-0.0325049
-0.0320041
-0.0320032
-0.0320024
-0.0325016
-0.0320007
-0.0319999
-0.031999
-0.0324982
-0.0319973
-0.0319964
-0.0324955
-0.0324946
-0.0319937
-0.0324928
-0.0324919
-0.032491
-0.03199
-0.0324891
-0.0324881
-0.0324872
-0.0324862
-0.0324852
-0.0324843
-0.0319833
-0.0324823
-0.0329813
-0.0319803
-0.0324792
-0.0324782
-0.0324772
-0.0319761
-0.0324751
-0.031974
-0.030973
-0.0304719
-0.0294708
-0.0279698
-0.0264687
-0.0249676
-0.0229665
-0.0214654
-0.0214642
-0.0214631
-0.019962
-0.0189608
-0.0179597
-0.0159585
-0.0134574
-0.0109562
-0.00995501
-0.00995382
-0.0109526
-0.0124514
-0.0149502
-0.018449
-0.0209478
-0.0239466
-0.0269453
-0.0289441
-0.0304428
-0.0309416
-0.0319403
-0.032439
-0.0319378
-0.0324365
-0.0319352
-0.0324339
-0.0319326
-0.0324313
-0.0319299
-0.0324286
-0.0339273
-0.0394259
-0.0489246
-0.0579232
-0.0584219
-0.0399205
0.0105809
0.102082
0.199084
0.252585
0.297086
0.336588
0.309589
0.258591
0.173092
0.0500936
-0.016405
-0.0259036
-0.0189021
-0.0114006
-0.00839918
-0.0138977
-0.0188962
-0.0213947
-0.0213932
-0.0208918
-0.0208902
-0.0198887
-0.0188872
-0.0178857
-0.0173842
-0.0168826
-0.0153811
-0.0148796
-0.013878
-0.0123764
-0.0108749
