0.0392985
0.044116
0.0439349
0.0387551
0.0285766
0.0433996
0.048224
0.0330498
0.027877
0.0327058
0.0275361
0.0223679
0.0272012
0.0370361
0.0418726
0.0317108
0.0165505
0.0363919
0.041235
0.0360798
0.0159264
0.0107746
0.0256247
0.0154765
0.000330123
0.00518558
0.0100429
0.00990204
0.00476309
-0.000373951
0.00949093
0.00935776
-0.00077345
-0.00590268
0.0189701
0.0188449
0.00872173
0.00360062
0.00848159
0.0233647
0.0132498
0.00313713
0.0180266
0.0279182
0.032812
0.032708
0.0426062
0.0625066
0.0674093
0.0673142
0.0822215
0.087131
0.0970428
0.091957
0.106873
0.111792
0.111714
0.116637
0.131563
0.126492
0.121422
0.116356
0.116291
0.11623
0.13117
0.151113
0.106059
0.0610073
0.065958
0.0459113
0.0158671
0.00582548
-0.00921356
-0.02425
-0.0342839
-0.0143151
-0.00434377
-0.0193698
-0.0393932
-0.0294139
-0.0244319
-0.0344473
-0.0494601
-0.0444701
-0.0394775
-0.0344821
-0.0544841
-0.0594833
-0.0644798
-0.124474
-0.159465
-0.199453
-0.249438
-0.179421
-0.0394013
0.150621
0.445647
0.815675
1.08571
1.12574
0.840777
0.700816
-0.134141
-0.279096
-0.209048
-0.123998
-0.0839441
-0.0988877
-0.108829
-0.0937666
-0.0987017
-0.0936341
-0.103564
-0.0934903
-0.0884141
-0.103335
-0.108253
-0.103169
-0.0880811
-0.0979907
-0.112898
-0.107802
-0.0877027
-0.092601
-0.107496
-0.092389
-0.0872788
-0.0821658
-0.0920499
-0.0919312
-0.0818097
-0.0716854
-0.0915582
-0.0864282
-0.0862955
-0.0811599
-0.0910214
-0.0958802
-0.0857362
-0.0805894
-0.0854398
-0.100287
-0.0901323
-0.0699744
-0.0848137
-0.0946502
-0.084484
-0.069315
-0.0741433
-0.0939689
-0.0737917
-0.0686118
-0.0734292
-0.0882439
-0.0930558
-0.0678651
-0.0826717
-0.0824756
-0.0772769
-0.0770755
-0.0818714
-0.0816647
-0.0964554
-0.0912434
-0.0760289
-0.0908117
-0.100592
-0.0953696
-0.0751447
-0.0749172
-0.0846872
-0.0744546
-0.0642195
-0.0589819
-0.0687418
-0.0484992
-0.0382541
-0.0280065
-0.0277565
-0.0175041
-0.00224918
0.0180081
0.00826782
0.00852991
0.0237944
0.0290612
0.0193304
0.0196019
0.0298757
0.0301519
0.0304303
0.015711
0.035994
0.0412792
0.0315667
0.0168563
0.0221482
0.0274422
0.0227384
0.00803682
0.0183373
0.0186399
0.00894468
0.00425149
0.00956037
0.0148713
0.0201843
0.0104993
0.000816259
0.0111352
0.0114562
-0.00322095
-0.00789613
0.00243059
0.0027592
-0.00691031
-0.016578
-0.00624378
-0.00590778
-0.00556998
-0.0152304
-0.00488906
0.000454015
0.000798816
-0.0238547
-0.0185065
-0.0131567
-0.0128052
-0.0224521
-0.0270973
-0.0117411
-0.0063832
-0.0360238
-0.0356629
-0.0103005
0.0000634
-0.0145712
-0.0142045
-0.00383626
0.00653332
0.0169043
0.0172766
0.0326502
0.0480252
0.0534014
0.0437789
0.0591576
0.0695376
0.0699187
0.0803011
0.0956845
0.106069
0.126455
0.121842
0.11723
0.112618
0.123008
0.108399
0.118791
0.134184
0.139578
0.109972
0.0603679
0.0507643
0.0511615
0.0215595
-0.00804167
-0.0126421
-0.0122418
-0.0218408
-0.0314391
-0.0260367
-0.0206337
-0.03023
-0.0448258
-0.024421
-0.0140156
-0.00860976
-0.0332034
-0.0277965
-0.0373892
-0.0369815
-0.0415734
-0.0411649
-0.030756
-0.0253468
-0.0699373
-0.114528
-0.154118
-0.153707
-0.213297
-0.232886
-0.112475
0.0629357
0.298347
0.648758
1.00417
1.15958
0.964992
0.440403
-0.0491859
-0.153775
-0.178364
-0.132953
-0.102542
-0.0871312
-0.0767208
-0.0863105
-0.0859004
-0.0804906
-0.0750811
-0.0846719
-0.089263
-0.0838545
-0.0684463
-0.0730386
-0.0776312
-0.0722244
-0.0668179
-0.071412
-0.0760066
-0.0656018
-0.0701975
-0.0847938
-0.0943908
-0.0839884
-0.0785866
-0.0731855
-0.0677852
-0.0873856
-0.0669867
-0.0615886
-0.0611914
-0.0657949
-0.0703993
-0.0650046
-0.0796108
-0.0842179
-0.078826
-0.063435
-0.0730451
-0.0876561
-0.0672682
-0.0618813
-0.0514956
-0.0611109
-0.0657273
-0.065345
-0.0649638
-0.0695837
-0.0542049
-0.0538274
-0.0484511
-0.0530761
-0.0527024
-0.03733
-0.046959
-0.0665893
-0.0762211
-0.0608542
-0.0554888
-0.0751249
-0.0747624
-0.0694015
-0.069042
-0.0886841
-0.0833277
-0.067973
-0.0576198
-0.0472683
-0.0519184
-0.0315702
-0.0212236
0.00412123
-0.00553565
0.0148057
0.0251453
0.0304832
0.0208192
0.0211534
0.0364858
0.0318163
0.032145
0.0274717
0.0427965
0.0431194
0.0284404
0.0387594
0.0590764
0.0743914
0.0547043
0.0450153
0.0453241
0.040631
0.0409357
0.0162383
0.0315388
0.0418371
0.0321333
0.0224273
0.0377191
0.0430087
0.0532961
0.0385813
0.0288642
0.0291448
0.0244232
0.0196992
0.019973
0.0252444
0.0405135
0.0307802
0.0210445
0.0213065
0.0215661
0.0118232
0.00707797
0.0173303
0.0325801
0.0178275
-0.0119276
-0.00168521
0.0035547
0.00379209
-0.010973
-0.000740711
0.00448907
0.00971629
-0.0000591
0.00516299
0.0153825
0.00059932
-0.00918643
-0.00897482
0.00123417
0.0064405
0.00664418
0.0018452
0.00204354
0.00223919
-0.00756784
-0.0123776
0.00780997
0.0229948
0.0381769
0.0333563
0.0435329
0.0487068
0.0588779
0.0540462
0.0592118
0.0693746
0.0895346
0.0796919
0.0948463
0.124998
0.140147
0.125293
0.110436
0.105576
0.120714
0.120848
0.12598
0.131109
0.126235
0.0913587
0.0514791
0.0565967
0.0467114
0.0168233
-0.00806776
-0.00796165
-0.0128584
-0.00775808
-0.0276606
-0.032566
-0.0224743
-0.0173855
-0.0522996
-0.0572165
-0.0421364
-0.0320591
-0.0469847
-0.0519133
-0.0368447
-0.021779
-0.0267161
-0.0366562
-0.0315992
-0.031545
-0.0414938
-0.0764454
-0.1064
-0.121357
-0.151318
-0.221281
-0.241247
-0.121216
0.0638125
0.293838
0.68386
0.81388
1.1639
0.983911
0.453922
0.0139299
-0.206065
-0.221062
-0.161063
-0.106066
-0.106072
-0.12608
-0.121092
-0.106106
-0.0961237
-0.101144
-0.111166
-0.0961921
-0.0862205
-0.0862516
-0.106286
-0.0963222
-0.0913617
-0.101404
-0.106449
-0.106496
-0.101547
-0.0915999
-0.106656
-0.106714
-0.0967753
-0.0968392
-0.116906
-0.111975
-0.0970468
-0.0921214
-0.102199
-0.112278
-0.102361
-0.102446
-0.0975333
-0.112623
-0.0977163
-0.0828116
-0.0929095
-0.11301
-0.103113
-0.0882184
-0.0983265
-0.108437
-0.09355
-0.0886655
-0.0837835
-0.0939039
-0.0940268
-0.0841521
-0.0842798
-0.0994099
-0.104542
-0.0996774
-0.0948147
-0.104954
-0.110096
-0.105241
-0.110387
-0.115536
-0.140687
-0.145841
-0.145997
-0.151155
-0.166315
-0.156478
-0.136642
-0.131809
-0.131978
-0.10715
-0.0923231
-0.0674987
-0.0526764
-0.0328562
-0.00803816
0.00677784
0.00159177
0.00140365
0.0262135
0.0410213
0.0308271
0.0206309
0.0304328
0.0452326
0.0250306
0.0148265
0.0196206
0.0494128
0.0442031
0.0339915
0.033778
0.0385628
0.0383456
0.0281267
0.027906
0.0276835
0.0424593
0.0272333
0.0270056
0.0317762
0.031545
0.0213122
0.0210778
0.0308416
0.0356039
0.0203645
0.000123552
0.019881
0.0296369
0.0243912
0.00414401
0.0138953
0.0186451
0.0183934
0.00814018
0.00788555
0.0176295
0.022372
0.0071131
-0.00314718
0.00159117
0.0163282
0.0110638
0.0157982
0.0255312
0.0202629
0.00499338
0.0147226
0.0294506
0.0291773
0.0189028
0.0136272
0.0183503
0.0380723
0.0527932
0.0425129
0.0672316
0.0869491
0.0916655
0.0813809
0.0960953
0.120809
0.125521
0.110232
0.134942
0.139652
0.14936
0.139068
0.123774
0.12848
0.113185
0.117888
0.117591
0.132294
0.136995
0.116695
0.141395
0.151094
0.120792
0.0754898
0.0551865
0.0548825
0.0445778
0.0192724
-0.0160337
-0.00134048
0.00335213
0.00304411
-0.0172645
-0.0125738
-0.00788358
-0.013194
-0.0235049
-0.0338164
-0.0191284
-0.034441
-0.034754
-0.0450675
-0.0303815
-0.025696
-0.0560109
-0.0963262
-0.116642
-0.141958
-0.192275
-0.252591
-0.207909
-0.0332263
0.131456
0.386137
0.785819
1.0955
1.17518
0.924862
0.329542
0.134222
-0.251098
-0.191418
-0.121739
-0.0770597
-0.0723806
-0.0877016
-0.0830229
-0.0633442
-0.0636657
-0.0689873
-0.0793089
-0.0796307
-0.0749526
-0.0852745
-0.0955964
-0.0809185
-0.0712405
-0.0765625
-0.0818846
-0.0822066
-0.0825287
-0.0728507
-0.0781726
-0.0884945
-0.0888163
-0.0841381
-0.0844598
-0.0897813
-0.0701028
-0.0654241
-0.0707453
-0.0810664
-0.0613873
-0.0617081
-0.0720286
-0.082349
-0.0776692
-0.0679891
-0.0833089
-0.0886284
-0.0739477
-0.0592667
-0.0695855
-0.074904
-0.0652222
-0.0455401
-0.0608578
-0.0761751
-0.0864921
-0.0918087
-0.082125
-0.087441
-0.0877566
-0.0730718
-0.0833867
-0.0937011
-0.0990152
-0.0793288
-0.074642
-0.0899548
-0.0902672
-0.0805791
-0.0908905
-0.0962015
-0.086512
-0.086822
-0.0621315
-0.0574405
-0.057749
-0.0380569
-0.0183644
-0.00867124
-0.00897757
0.00571666
0.0104115
0.0201068
0.0198028
0.0244994
0.0391965
0.0438943
0.0335928
0.0282918
0.0329915
0.0326918
0.0273928
0.0170945
0.0167969
0.0214999
0.0162037
0.00590809
0.0156133
0.0203191
0.0150257
0.00473309
0.00944119
0.0191501
0.00885968
0.00857008
0.0182813
0.0279932
0.012706
0.0124196
0.00713403
0.0218493
0.0115653
-0.00371774
-0.014
-0.00428133
-0.00956182
-0.00984143
-0.0151201
-0.00539797
0.00432511
-0.0159509
-0.021226
-0.00650011
-0.00177331
-0.0120456
-0.0173169
-0.00758718
-0.00285653
-0.00812489
-0.0233923
-0.0286586
-0.018924
-0.0141883
-0.0144516
-0.00471389
0.0100249
0.00976473
0.0195056
0.0192476
0.0539907
0.0587348
0.0584801
0.0682264
0.0879739
0.0927225
0.0924722
0.0872231
0.106975
0.121728
0.111483
0.101238
0.0909951
0.100753
0.0955122
0.100273
0.100034
0.099797
0.124561
0.129326
0.104093
0.0738608
0.05363
0.0384004
0.00817217
-0.00205478
-0.0172804
-0.0375047
-0.0327277
-0.0279493
-0.0181696
-0.0383885
-0.043606
-0.0438221
-0.0340369
-0.0342502
-0.0444622
-0.0446727
-0.0248818
-0.0400894
-0.0502956
-0.0505004
-0.0557036
-0.0809054
-0.136106
-0.166305
-0.146502
-0.176698
-0.251892
-0.307085
-0.262276
-0.202465
-0.0826535
0.06716
0.291975
0.656792
0.99161
1.10643
0.976251
0.481075
-0.0541006
-0.244274
-0.204446
-0.109616
-0.0897849
-0.109952
-0.100117
-0.0902805
-0.0754422
-0.0856023
-0.0957606
-0.0759172
-0.076072
-0.086225
-0.0963763
-0.0815258
-0.0716735
-0.0918195
-0.0919636
-0.0871059
-0.0822463
-0.0873849
-0.0925217
-0.0876567
-0.0827897
-0.0879209
-0.0930502
-0.0831777
-0.0783032
-0.0734268
-0.0935485
-0.0936683
-0.0887861
-0.078902
-0.0840159
-0.0941279
-0.0742379
-0.074346
-0.089452
-0.0995561
-0.0846581
-0.0747582
-0.0848562
-0.0899522
-0.0750461
-0.0651381
-0.0602279
-0.0803157
-0.0704014
-0.0604851
-0.0755667
-0.0806462
-0.0807235
-0.0707988
-0.080872
-0.085943
-0.0910119
-0.0860787
-0.0811433
-0.0862058
-0.0862661
-0.0763243
-0.0663803
-0.0664341
-0.0764857
-0.0565351
-0.0465824
-0.0466274
-0.0416702
-0.0167108
-0.00674924
-0.0017854
-0.00681933
0.018149
0.0481195
0.0380923
0.0430674
0.0380447
0.0480243
0.0530062
0.0329903
0.0329767
0.0379654
0.0429564
0.0329496
0.0229452
0.0329431
0.0529432
0.0379457
0.0179505
0.0229576
0.022967
0.0229788
0.0129929
0.0330093
0.033028
0.028049
0.0180724
0.0180982
0.0281262
0.0131566
0.0031894
0.0032245
0.0282619
0.00330173
-0.0116561
-0.0166117
-0.00656482
-0.00151564
-0.0214641
-0.0314102
-0.00135399
-0.00129541
-0.0112345
-0.0161712
-0.00110557
-0.0060376
-0.00596728
-0.0158946
-0.0108196
-0.000742265
-0.0106626
-0.0205806
-0.0054962
-0.000409508
0.00467951
-0.000229144
-0.00513548
0.00996051
0.00505882
0.00515943
0.0252624
0.0303676
0.0504751
0.0505849
0.0506971
0.0708115
0.0959281
0.0810471
0.0811683
0.0962918
0.111418
0.116546
0.111676
0.111808
0.111943
0.10708
0.107219
0.12236
0.147504
0.15265
0.0927977
0.0679478
0.0631001
0.0382545
0.00341108
-0.0214302
-0.0212693
-0.0111064
-0.0159413
-0.0107741
-0.00560484
-0.0154335
-0.0302601
-0.0400846
-0.0249071
-0.0197276
-0.024546
-0.0343624
-0.0291768
-0.0189893
-0.0337998
-0.0386083
-0.0384149
-0.0482195
-0.103022
-0.142823
-0.182622
-0.227419
-0.192214
-0.0520076
0.153201
0.228411
0.843623
1.10884
1.15405
0.91927
0.404489
-0.0202899
-0.210067
-0.199843
-0.139617
-0.0843897
-0.0941606
-0.0889298
-0.0736974
-0.0634634
-0.0682279
-0.0579909
-0.0627523
-0.0525122
-0.0672706
-0.0720276
-0.0667831
-0.0615372
-0.0562899
-0.0610412
-0.0557911
-0.0505397
-0.065287
-0.080033
-0.0597777
-0.0545211
-0.0642633
-0.0690043
-0.0537441
-0.0484827
-0.0582202
-0.0679565
-0.0726917
-0.0724259
-0.072159
-0.076891
-0.0566221
-0.0513521
-0.0760812
-0.0658094
-0.0505366
-0.0402629
-0.0449884
-0.054713
-0.0544368
-0.0591598
-0.043882
-0.0486035
-0.0633242
-0.0480443
-0.0427636
-0.0624824
-0.0672005
-0.041918
-0.0466349
-0.0513513
-0.0710672
-0.0757826
-0.0654975
-0.085212
-0.084926
-0.0946397
-0.084353
-0.089066
-0.108779
-0.118491
-0.0782031
-0.087915
-0.0826267
-0.0873383
-0.0820496
-0.0417609
-0.0364721
-0.0261832
0.00410577
0.0193947
0.0146836
0.00497253
0.0202613
0.03555
0.0308386
0.0211271
0.0364153
0.0367033
0.0369911
0.0322786
0.0375659
0.0428528
0.0481393
0.0384255
0.0287113
0.0489966
0.0342814
0.0295658
0.0198497
0.025133
0.0254157
0.0206978
0.0159793
0.0212602
0.0215403
-0.00318026
-0.0179016
0.00237634
0.0126535
0.0129297
0.00820518
-0.0115203
0.00375338
-0.00597392
-0.00570218
0.00956857
-0.00516171
-0.00989303
-0.0246254
-0.00935893
0.0159064
0.00617065
-0.00356632
-0.0133045
-0.00804392
-0.0077846
-0.0225266
-0.0222699
-0.0070145
-0.0167605
-0.0215079
-0.0312567
-0.00600701
0.00424123
0.00948798
-0.0152668
-0.0150231
0.000218969
0.000459458
-0.0143017
-0.00906447
0.0161711
0.0264049
0.016637
0.0368673
0.0570959
0.0673227
0.0675476
0.0627707
0.072992
0.113211
0.103429
0.103644
0.113858
0.114069
0.0742787
0.0594862
0.0946916
0.109895
0.0900962
0.0802954
0.0954924
0.100687
0.0708798
0.0410703
0.0162585
0.0114445
-0.0183718
-0.0431904
-0.0480113
-0.0278345
-0.03766
-0.052488
-0.0623182
-0.0571509
-0.0469861
-0.0518236
-0.0616636
-0.0465061
-0.041351
-0.0611985
-0.0610485
-0.055901
-0.0557561
-0.0706138
-0.135474
-0.165337
-0.195202
-0.24507
-0.189941
-0.0148145
0.195309
0.485431
0.845549
1.11566
1.17078
0.830888
0.255996
-0.133899
-0.198797
-0.173698
-0.123601
-0.108508
-0.098417
-0.078329
-0.0982439
-0.0931616
-0.0880822
-0.0780056
-0.0879319
-0.0978612
-0.0927933
-0.0877283
-0.102666
-0.117607
-0.0925508
-0.0874976
-0.0924472
-0.1024
-0.0923553
-0.0823138
-0.0872753
-0.10224
-0.102207
-0.0921775
-0.0871509
-0.0971272
-0.102107
-0.0920888
-0.0820741
-0.0870624
-0.0970537
-0.077048
-0.0720453
-0.0870455
-0.0920488
-0.0870551
-0.0720644
-0.0720766
-0.0720919
-0.0671102
-0.0621314
-0.0721557
-0.0871829
-0.0772132
-0.0722464
-0.0722826
-0.0823217
-0.0673639
-0.072409
-0.0574571
-0.0675081
-0.0925622
-0.0776191
-0.087679
-0.102742
-0.117808
-0.112876
-0.107948
-0.128023
-0.1481
-0.13318
-0.138264
-0.14835
-0.143439
-0.13853
-0.133625
-0.108723
-0.103823
-0.0689262
-0.0440322
-0.029141
-0.0242526
-0.00936699
0.000515881
0.030396
0.0252734
0.020148
0.0350199
0.0348892
0.0347557
0.0296196
0.0394808
0.0493394
0.0441953
0.0290486
0.0388994
0.0537475
0.0485931
0.0384361
0.0432766
0.0531146
0.04795
0.027783
0.0326136
0.0474416
0.0372673
0.0270905
0.0219114
0.0267299
0.036546
0.0263598
0.00617127
0.0309805
0.0257874
0.010592
0.0103944
0.0251947
0.0299927
0.0147885
0.00458226
0.0243738
0.0241633
0.0189507
0.0137361
0.0185194
0.0283007
0.01808
-0.00214268
0.00763273
0.0174062
0.0121778
0.00194752
0.00171539
-0.00351856
0.0112457
0.0110082
0.000768932
0.035528
0.0402853
0.0400409
0.044795
0.0695474
0.0792982
0.0840474
0.0787951
0.0885413
0.093286
0.0980293
0.0977711
0.122512
0.142251
0.146988
0.126725
0.12646
0.131194
0.140926
0.130658
0.120388
0.120117
0.154845
0.104572
0.0592975
0.0690223
0.048746
0.0184688
-0.00680936
0.00291156
0.00763159
0.0123508
-0.0129309
-0.00821333
-0.00849655
-0.0187805
-0.0390652
-0.0243505
-0.0146365
-0.0249231
-0.0352103
-0.0304981
-0.0307863
-0.0260751
-0.0413643
-0.081654
-0.101944
-0.157235
-0.217525
-0.227816
-0.0831078
0.126601
0.386309
0.766017
1.07572
1.15543
0.81514
0.194847
-0.185445
-0.215738
-0.13103
-0.101323
-0.0916153
-0.0819075
-0.0721996
-0.0824915
-0.0877832
-0.0730747
-0.0733659
-0.0886568
-0.0939474
-0.0842376
-0.0845274
-0.0898167
-0.0951057
-0.0853941
-0.080682
-0.0909694
-0.0912562
-0.0765424
-0.071828
-0.0771129
-0.0873971
-0.0826806
-0.0829633
-0.0932452
-0.0885264
-0.0988066
-0.0790861
-0.0793646
-0.0846421
-0.0849188
-0.0801944
-0.075469
-0.0907426
-0.0910151
-0.0812865
-0.0765567
-0.0718258
-0.0770937
-0.0673604
-0.0576259
-0.0728901
-0.063153
-0.0684145
-0.0586747
-0.0639336
-0.079191
-0.074447
-0.0697015
-0.0599546
-0.0852061
-0.0854561
-0.0657045
-0.0809514
-0.0861966
-0.0814402
-0.0666821
-0.0669223
-0.0771608
-0.0873976
-0.0726326
-0.0778658
-0.0830972
-0.0933268
-0.0635545
-0.0587803
-0.0590042
-0.0492262
-0.0244463
-0.0196643
-0.00988037
-0.00509441
0.0146936
0.0294837
0.0292758
0.0190701
0.0338664
0.043665
0.0384657
0.0332686
0.0330737
0.047881
0.0426906
0.0225024
0.0173166
0.022133
0.0369518
0.0217729
0.0115963
0.0264222
0.0262504
0.0160811
0.00091414
0.0157497
0.0205877
0.0154281
0.0102711
0.0101166
0.0149646
0.0198151
0.00466824
0.00452391
0.00938217
0.00424303
-0.0058935
-0.0060274
-0.00115867
0.00871272
-0.00141322
-0.0115365
-0.0116571
0.00322505
-0.00689012
-0.0170026
-0.0121123
0.00278075
-0.00732347
-0.0224249
-0.0025236
-0.0026195
-0.0077126
-0.0328029
-0.0078904
0.00702491
0.0169431
0.00686403
0.0217878
0.0517145
0.056644
0.0565764
0.0715116
0.0914497
0.0913907
0.0913345
0.101281
0.111231
0.126183
0.111139
0.106097
0.0960582
0.101022
0.100989
0.100959
0.130932
0.130908
0.0858864
0.045868
0.0458524
0.0358398
0.01083
-0.0191768
-0.0241807
-0.00418167
-0.00417977
-0.019175
-0.0291673
-0.0141566
-0.0241431
-0.0241268
-0.0341075
-0.0290853
-0.0340603
-0.0440324
-0.0540016
-0.0389679
-0.0289314
-0.0388921
-0.0538499
-0.0438048
-0.0487569
-0.108706
-0.158653
-0.173596
-0.223537
-0.218475
-0.0884106
0.106657
0.376727
0.7468
1.01688
1.06695
0.737035
0.157119
-0.222794
-0.242705
-0.217613
-0.0975181
-0.0874208
-0.102321
-0.0822184
-0.0721132
-0.0820055
-0.0968951
-0.0817822
-0.0816668
-0.0815488
-0.0964283
-0.0913052
-0.0761797
-0.0910517
-0.0959213
-0.0957884
-0.0856531
-0.0855154
-0.100375
-0.0952329
-0.075088
-0.0799409
-0.0747914
-0.0746397
-0.0644857
-0.0743294
-0.0691709
-0.0840101
-0.0738472
-0.0686821
-0.0785149
-0.0783455
-0.073174
-0.0680005
-0.0678248
-0.0776472
-0.0824675
-0.0772858
-0.0621022
-0.0619166
-0.056729
-0.0465396
-0.0463483
-0.0611552
-0.0609602
-0.0457634
-0.0655649
-0.0703646
-0.0651625
-0.0599588
-0.0497534
-0.0695463
-0.0793377
-0.0641274
-0.0589156
-0.0587022
-0.0784873
-0.0732709
-0.0580531
-0.0628339
-0.0776132
-0.0573912
-0.0521678
-0.0569431
-0.0517172
-0.0414899
-0.0162615
-0.00603185
-0.010801
-0.0205691
0.00966398
0.0198981
0.0201333
0.00536951
0.0106067
0.0308448
0.0360839
0.0413239
0.0465647
0.0418063
0.0320488
0.037292
0.037536
0.0427806
0.0430259
0.0332719
0.0335185
0.0487656
0.0390133
0.0092615
0.0245102
0.0247593
0.0300088
0.0152587
0.0155089
0.0307595
0.0210103
0.0212614
0.00651265
0.0117641
0.0170157
0.0222674
0.0125192
0.012771
0.0130228
-0.0017254
-0.0164737
-0.011222
0.00402948
-0.000719178
-0.010468
-0.0152171
0.0000335
0.000283856
-0.00446614
-0.00421651
0.00603272
-0.00871849
-0.0184702
-0.0182224
0.00202489
0.00227157
-0.00748236
-0.00723693
-0.00699219
-0.0167482
-0.0165049
-0.0112624
-0.00102071
0.00422011
-0.000539957
-0.0103009
0.0249371
0.0351742
0.0454102
0.0406452
0.0658791
0.0761119
0.0813435
0.0815739
0.0918031
0.112031
0.127258
0.127483
0.122707
0.127929
0.108151
0.10337
0.0985883
0.103805
0.11902
0.124234
0.119445
0.0896556
0.0648641
0.0450709
0.0202759
0.0154791
0.00568057
-0.0141199
-0.0189222
-0.0187264
-0.00853253
-0.0183407
-0.0381508
-0.037963
-0.0277772
-0.0325935
-0.047412
-0.0472326
-0.0320554
-0.0318804
-0.0417077
-0.0315372
-0.0363691
-0.0412032
-0.0810398
-0.125879
-0.12572
-0.145564
-0.23541
-0.295259
-0.25011
-0.149964
-0.0448203
0.0503207
0.215459
0.500595
0.850728
1.07586
1.12599
0.826111
0.311233
-0.0686482
-0.188532
-0.153418
-0.0933077
-0.0781999
-0.0880951
-0.0829932
-0.0478943
-0.0527984
-0.0627054
-0.0576156
-0.0525288
-0.057445
-0.0773644
-0.0722869
-0.0722125
-0.0771413
-0.0770732
-0.0670084
-0.0469467
-0.0618883
-0.0718332
-0.0717813
-0.0617327
-0.0516874
-0.0666454
-0.0666067
-0.0665714
-0.0665395
-0.081511
-0.0864858
-0.0764641
-0.0764458
-0.0714309
-0.0764194
-0.0614115
-0.056407
-0.061406
-0.0864085
-0.0664145
-0.061424
-0.0514371
-0.0514537
-0.0464739
-0.0414976
-0.0515249
-0.0765558
-0.0665903
-0.0616283
-0.05667
-0.0667153
-0.0717642
-0.0618168
-0.0618729
-0.0769327
-0.0869962
-0.0820633
-0.067134
-0.0872084
-0.112286
-0.112368
-0.112454
-0.117543
-0.117635
-0.117732
-0.112832
-0.122935
-0.128043
-0.103154
-0.0782687
-0.0583871
-0.0585091
-0.0436349
-0.0137643
-0.00389734
-0.00903406
0.00582557
0.0156816
0.0105339
0.0153826
0.00522764
0.0100691
0.0349069
0.0347411
0.0245717
0.0293987
0.044222
0.0340419
0.0388581
0.0536708
0.0634799
0.0482854
0.0330874
0.0278859
0.0276809
0.0474724
0.0222604
0.0320449
0.0218259
0.0266035
0.0363777
0.0411484
0.0509158
0.0356797
0.0104402
0.000197418
0.00995126
0.0247018
0.014449
0.00419287
0.00893349
0.0136709
0.00840498
-0.00686411
0.00286359
0.00758811
-0.00269053
-0.0179723
-0.0132572
-0.00854522
-0.0088363
-0.0341304
-0.0144276
-0.00972777
-0.00503093
-0.0203371
-0.0206461
-0.0109581
-0.00627295
-0.0165907
-0.0269112
-0.0172346
-0.00756077
-0.0178897
-0.0332213
-0.0185557
-0.00389273
-0.0142324
-0.0345747
-0.0249196
-0.0152671
-0.015617
-0.0109695
0.00367549
0.0133181
0.0279583
0.0275961
0.0422315
0.0568646
0.0664955
0.0711241
0.0807504
0.100375
0.104997
0.0946166
0.0842344
0.0888501
0.0884639
0.0730756
0.0726854
0.0922933
0.0918994
0.0815035
0.0661059
0.0857065
0.0953053
0.0999025
0.094498
0.0590919
0.0536842
0.0332749
0.00286414
-0.0375481
-0.0279618
-0.0383768
-0.0537933
-0.054211
-0.04963
-0.0400503
-0.0604717
-0.0658944
-0.0613181
-0.0467429
-0.0521688
-0.0725956
-0.0580234
-0.0384521
-0.0488817
-0.0543121
-0.0597434
-0.0551753
-0.090608
-0.136041
-0.171475
-0.18691
-0.242345
-0.237781
-0.103217
0.056347
0.26091
0.570473
0.895036
1.0846
1.18416
1.07872
0.618284
0.447846
-0.167592
-0.248031
-0.198469
-0.113907
-0.104345
-0.109782
-0.12022
-0.095657
-0.0910938
-0.0965302
-0.101966
-0.0974019
-0.0878369
-0.0882715
-0.113705
-0.0941387
-0.0895713
-0.0850032
-0.100434
-0.0958647
-0.0862942
-0.0867227
-0.10215
-0.107577
-0.0980026
-0.103427
-0.0988505
-0.104273
-0.0946938
-0.0801136
-0.0805321
-0.100949
-0.0813651
-0.0867795
-0.0821924
-0.0926038
-0.0930136
-0.0684219
-0.0738285
-0.0792334
-0.0746367
-0.0800381
-0.0704378
-0.0908356
-0.0912315
-0.0816255
-0.0870175
-0.0974075
-0.0977955
-0.0931813
-0.083565
-0.0939466
-0.104326
-0.089703
-0.0900777
-0.10045
-0.12082
-0.111188
-0.101553
-0.116916
-0.137276
-0.137634
-0.132989
-0.128341
-0.148691
-0.154038
-0.134382
-0.119723
-0.115062
-0.105397
-0.0807301
-0.06106
-0.0513869
-0.0417107
-0.0320316
-0.0023493
-0.00266393
-0.00297542
0.0217163
0.0264112
0.0161093
0.0108108
0.0205155
0.0302236
0.0149351
0.00964996
0.0143683
0.02909
0.0438153
0.0185441
0.0282765
0.0330124
0.037752
0.0374952
0.017242
0.0419926
0.0317469
0.036505
0.0162668
0.0210324
0.0208019
0.0155752
0.000352351
0.00513344
0.0249185
0.0147074
0.00450036
0.00929729
0.0190982
0.0139032
0.00871227
0.0085254
0.0233426
0.018164
0.0129895
0.00781911
0.0176529
0.0224909
-0.00266683
-0.0128204
0.00703032
0.00688528
-0.00825548
0.00160805
0.0114759
0.016348
0.0112245
0.00610536
0.0159906
0.0258801
0.0257741
0.0256724
0.0555751
0.0654823
0.0653939
0.0603099
0.0802303
0.100155
0.0850846
0.100018
0.119957
0.134899
0.134847
0.129798
0.119755
0.119715
0.114681
0.10965
0.114624
0.119603
0.129586
0.154574
0.129566
0.0795631
0.0745643
0.06457
0.0395803
0.019595
0.00961419
-0.00536211
-0.0203339
-0.0203012
-0.0152641
-0.0152225
-0.0351764
-0.0251259
-0.0250709
-0.0350115
-0.0349476
-0.0298794
-0.0248067
-0.0197296
-0.0146481
-0.0395623
-0.0294721
-0.0193775
-0.0342786
-0.0691753
-0.119068
-0.138956
-0.18384
-0.253719
-0.178595
-0.0134658
0.176667
0.451805
0.871946
1.14709
1.22724
0.997396
0.527554
0.117716
-0.122118
-0.256948
-0.316773
-0.291595
-0.211413
-0.136227
-0.111037
-0.100843
-0.100645
-0.095443
-0.100237
-0.100028
-0.0848149
-0.0945981
-0.114377
-0.0991532
-0.0889253
-0.0836938
-0.0984586
-0.0982199
-0.0779777
-0.077732
-0.0924827
-0.0972301
-0.086974
-0.0817146
-0.0914519
-0.0961858
-0.0959165
-0.0906439
-0.0903681
-0.0950892
-0.0898071
-0.074522
-0.0842338
-0.0839426
-0.0836484
-0.0683513
-0.0730512
-0.0877484
-0.0874426
-0.0821342
-0.0818229
-0.096509
-0.0861924
-0.0808732
-0.0755514
-0.0702271
-0.0699003
-0.069571
-0.0692393
-0.0589053
-0.0585689
-0.0482303
-0.0528895
-0.0575464
-0.0672012
-0.0618539
-0.0515046
-0.0611533
-0.0658
-0.0654448
-0.0550877
-0.0697288
-0.0743682
-0.0690058
-0.0586417
-0.058276
-0.0729088
-0.06754
-0.0421697
-0.041798
-0.0264249
-0.0160505
0.00432526
0.0197022
0.00508036
0.0104596
0.03084
0.0312214
0.0316038
0.0319871
0.0373713
0.0477563
0.0431421
0.0335287
0.0389159
0.0543037
0.0446921
0.0300811
0.0354705
0.0458603
0.0462505
0.041641
0.0220318
0.0424228
0.0278139
0.00820518
0.0185965
0.0289878
0.039379
0.0247702
0.0101612
0.0105519
0.0209425
0.0163327
0.0117225
0.0121119
0.0325008
0.0178892
-0.00172293
-0.00133573
-0.0109492
-0.00556343
-0.0201784
-0.00979428
-0.00941102
-0.0240287
-0.0336474
-0.0282671
-0.00788795
-0.00750994
-0.0121331
-0.0167576
-0.0113833
-0.00601044
-0.020639
-0.035269
0.00509955
0.0304665
0.0208318
0.0261955
0.0265574
0.0269176
0.037276
0.0526325
0.0979871
0.11334
0.0986903
0.0840389
0.104385
0.10973
0.100072
0.0904115
0.095749
0.106084
0.121417
0.116747
0.0820751
0.0574004
0.0427231
0.0230432
0.00336063
-0.00132467
-0.00101274
-0.0107036
-0.0103974
-0.00509398
-0.00979355
-0.0194961
-0.0342017
-0.0289103
-0.0136221
-0.028337
-0.0380552
-0.0277765
-0.0225011
-0.0422291
-0.0569604
-0.0366951
-0.0214332
-0.0411749
-0.10592
-0.155669
-0.160421
-0.210177
-0.169936
-0.0246997
0.185533
0.470763
0.840988
1.13621
1.21143
0.961641
0.371851
-0.0729433
-0.197741
-0.167544
-0.11235
-0.10216
-0.0869746
-0.0717933
-0.0666161
-0.0714432
-0.0712745
-0.06111
-0.0609499
-0.0707941
-0.0856427
-0.0704956
-0.060353
-0.0652147
-0.065081
-0.0649517
-0.0848269
-0.0797067
-0.0895909
-0.0794798
-0.0843732
-0.0942713
-0.109174
-0.0890813
-0.0839933
-0.08891
-0.0988314
-0.103757
-0.0986883
-0.0886239
-0.113564
-0.108509
-0.103459
-0.103414
-0.113374
-0.118338
-0.0933073
-0.0932814
-0.10826
-0.113244
-0.0832329
-0.0732265
-0.083225
-0.103228
-0.0982368
-0.0832501
-0.108268
-0.118291
-0.0933195
-0.0833525
-0.0833904
-0.0984333
-0.108481
-0.113534
-0.133592
-0.153654
-0.158722
-0.148795
-0.143872
-0.163955
-0.159042
-0.144135
-0.129232
-0.134334
-0.139441
-0.129553
-0.0896703
-0.0597922
-0.054919
-0.0500507
-0.0251873
-0.0203287
-0.020475
-0.000626119
0.0242179
0.0340571
0.0288915
0.0337211
0.0385459
0.0483659
0.0281812
0.0429918
0.0577976
0.0475987
0.0473952
0.0471869
0.046974
0.0567565
0.0415344
0.0213077
0.0310764
0.0358406
0.0356002
0.0253553
0.035106
0.0398522
0.0295939
0.0043313
0.0190643
0.0287929
0.0285172
0.00823721
0.00795294
0.00266442
0.00737168
0.00207477
0.00177369
0.00646849
0.0011592
-0.00915415
-0.0194715
-0.0147929
0.00488173
-0.00544755
-0.0157807
-0.00611776
-0.00145863
-0.00680328
-0.00715169
-0.00750382
0.0221404
0.0167809
0.0114179
0.0410512
0.0506811
0.0503074
0.0549303
0.0695498
0.079166
0.0887788
0.0833883
0.0929945
0.122598
0.137198
0.116794
0.116388
0.115979
0.120566
0.0951513
0.114733
0.124312
0.133888
0.118462
0.123033
0.132601
0.147166
0.0817293
0.0412898
0.0358477
0.0254033
-0.00504356
-0.0354927
-0.000944112
0.00860225
0.00814645
-0.0123115
-0.0177715
-0.0132335
-0.0136974
-0.0241633
-0.0346311
-0.0301006
-0.0205719
-0.016045
-0.0215196
-0.0169959
-0.0524737
-0.112953
-0.153434
-0.158916
-0.189399
-0.079884
0.13463
0.414143
0.773655
1.11817
1.26268
1.05718
0.481692
-0.0638009
-0.239295
-0.169789
-0.090284
-0.0657797
-0.0762759
-0.0817726
-0.0772698
-0.0827673
-0.0832652
-0.0937633
-0.0892616
-0.0797601
-0.105259
-0.105757
-0.101256
-0.0817544
-0.0972527
-0.117751
-0.103249
-0.0987465
-0.0892438
-0.109741
-0.115237
-0.100733
-0.0912281
-0.116723
-0.117217
-0.10271
-0.0932021
-0.103694
-0.104184
-0.0946736
-0.0951621
-0.120649
-0.126136
-0.111621
-0.0971045
-0.107587
-0.113068
-0.108548
-0.0890256
-0.0895022
-0.109977
-0.0904504
-0.075922
-0.0913919
-0.11686
-0.117326
-0.0977902
-0.113252
-0.108713
-0.119171
-0.119627
-0.13008
-0.140532
-0.150981
-0.131428
-0.136872
-0.147314
-0.152754
-0.133191
-0.138625
-0.139057
-0.144485
-0.144912
-0.110335
-0.105755
-0.106173
-0.0765876
-0.0419992
-0.0374077
-0.0328132
-0.0132155
0.0113854
0.0159895
0.015597
0.0302077
0.0398219
0.0444394
0.0290605
0.033685
0.0433131
0.0529448
0.0375801
0.0322192
0.0468619
0.0515084
0.0461588
0.035813
0.035471
0.040133
0.044799
0.029469
0.024143
0.0338211
0.0335033
0.0231897
0.0278803
0.0325751
0.0322742
0.0219776
0.0216853
0.0313974
0.0261138
0.00583477
0.00556015
0.01029
0.0150244
0.00476341
-0.00549303
-0.000744857
0.00900797
-0.00623453
-0.0164723
-0.0167054
0.00806631
0.00784279
-0.00237593
-0.00758981
0.00720117
0.016997
0.0117978
0.0166035
0.0364141
0.0512298
0.0510504
0.060876
0.0707066
0.0905423
0.0903831
0.0952289
0.11008
0.114936
0.0847972
0.0696635
0.099535
0.109412
0.114294
0.119181
0.134073
0.0989706
0.0588733
0.0337814
0.0236946
0.0186132
-0.011463
-0.0365339
-0.0215995
-0.0166598
-0.0117149
-0.0317646
-0.036809
-0.0268481
-0.0268819
-0.0269103
-0.0369335
-0.0269513
-0.0269638
-0.026971
-0.0369728
-0.0219694
-0.0369606
-0.0769465
-0.136927
-0.156902
-0.196872
-0.216837
-0.0817966
0.153249
0.4383
0.843357
1.17342
1.22349
0.878557
0.213635
-0.201283
-0.216195
-0.106102
-0.0660039
-0.0909006
-0.0957922
-0.0806786
-0.0705599
-0.0854362
-0.0803073
-0.0751734
-0.0700344
-0.0798904
-0.0897414
-0.0845874
-0.0694285
-0.0742646
-0.0840958
-0.078922
-0.0787434
-0.08356
-0.108372
-0.0981786
-0.0829808
-0.0827782
-0.0925708
-0.0873588
-0.0771421
-0.0719207
-0.0866948
-0.0964642
-0.0762292
-0.0709895
-0.0807455
-0.0854969
-0.0802439
-0.0699865
-0.0797248
-0.0894587
-0.0791884
-0.0689138
-0.068635
-0.073352
-0.0680648
-0.0427735
-0.0574782
-0.0671788
-0.0618755
-0.0565681
-0.0562569
-0.0659418
-0.0756228
-0.0653001
-0.0599736
-0.0696433
-0.0843094
-0.0889719
-0.0686308
-0.0782862
-0.077938
-0.0725864
-0.0572314
-0.0818731
-0.0815114
-0.0811464
-0.0407782
-0.0354069
-0.0300324
-0.00465481
0.0157258
0.0261094
0.0214959
0.0218854
0.0272776
0.0476727
0.0280705
0.033471
0.0638741
0.0592799
0.0546881
0.0500989
0.0555121
0.0609277
0.0413456
0.0367658
0.0521882
0.0626128
0.0580395
0.0434683
0.0438991
0.0543318
0.0447665
0.045203
0.0406413
0.0660814
0.0615231
0.0469665
0.0524114
0.0578579
0.0433059
0.0237552
0.014206
0.034658
0.0351112
0.0255657
0.0210213
0.0164779
0.0319356
0.0273943
0.0228538
0.0233142
0.0187754
0.00923736
-0.00530002
0.000163225
0.040627
0.0260914
-0.00344387
0.0070213
0.0274868
0.0279526
0.0184186
0.0238848
0.0443511
0.0648175
0.0552838
0.0557502
0.0762163
0.0916824
0.0921482
0.0976137
0.128079
0.133544
0.114008
0.0944718
0.094935
0.115398
0.11086
0.106321
0.111781
0.157241
0.1127
0.0631574
0.0486142
0.0540699
0.0245245
0.00997797
0.000430186
0.00588113
-0.0136693
-0.043221
-0.0427742
-0.0323289
-0.0268851
-0.0264429
-0.0510024
-0.0205635
-0.0101264
-0.044691
-0.0542576
-0.043826
-0.0283963
-0.0379687
-0.0575431
-0.0671196
-0.0866983
-0.141279
-0.150862
-0.145448
-0.190035
-0.234625
-0.129218
0.101187
0.39159
0.78699
1.12239
1.20778
0.933174
0.328563
-0.111051
-0.240667
-0.170286
-0.104909
-0.0945338
-0.104162
-0.0937932
-0.0784275
-0.0930649
-0.0977055
-0.0923493
-0.0719963
-0.0816466
-0.1113
-0.100957
-0.0806175
-0.0752813
-0.0849485
-0.0896193
-0.0842936
-0.0839714
-0.103653
-0.118338
-0.123027
-0.117719
-0.107415
-0.102115
-0.0968191
-0.0865266
-0.0962381
-0.105953
-0.110673
-0.100396
-0.115123
-0.129854
-0.129589
-0.129328
-0.129072
-0.103819
-0.108571
-0.108326
-0.118086
-0.10285
-0.0976182
-0.0923907
-0.0971674
-0.121948
-0.121734
-0.0965233
-0.111317
-0.116116
-0.110918
-0.110725
-0.135537
-0.135353
-0.170173
-0.159998
-0.139827
-0.154661
-0.169499
-0.174341
-0.169189
-0.15904
-0.158897
-0.153757
-0.128623
-0.123493
-0.108367
-0.0782462
-0.0431299
-0.0430181
-0.042911
-0.0378084
-0.0127105
0.0173829
0.0024716
-0.0174443
0.0026352
0.0227101
0.0277803
0.0178459
0.0329069
0.0279633
0.00301505
0.0180622
0.0281047
0.0481426
0.0281759
0.0132046
0.00822865
0.0132481
0.00326302
0.00327332
0.00327904
0.0182802
0.0132768
0.0082688
0.00825628
0.0182392
0.0182176
0.0131915
-0.0118391
-0.0168742
-0.00691378
-0.00195784
-0.00200636
0.00794067
0.00288328
-0.0221785
-0.0322447
-0.0273153
-0.0123903
-0.0224696
-0.0275533
-0.0226412
-0.0027335
-0.01783
-0.0279309
-0.0230359
-0.0231452
-0.0182587
-0.0183763
-0.0234982
-0.00362413
0.00624579
0.0111116
0.0159734
0.0308311
0.0356847
0.0455344
0.0453801
0.0552219
0.0750597
0.0848936
0.0847237
0.0895499
0.104372
0.0991909
0.0940057
0.0888168
0.103624
0.103428
0.0982279
0.113024
0.147817
0.137606
0.0773922
0.0471745
0.0369533
0.0217286
-0.00349943
-0.0187309
-0.0189656
-0.0142037
-0.0144451
-0.0196897
-0.00993747
-0.00518845
-0.0104426
-0.0306998
-0.0359601
-0.00622344
-0.0164898
-0.0367591
-0.0220313
-0.0223064
-0.0425844
-0.0428653
-0.0381489
-0.0484352
-0.103724
-0.139016
-0.16931
-0.184607
-0.0899069
0.109791
0.369486
0.739179
1.10387
1.27356
1.22824
0.827928
0.232609
-0.137712
-0.218035
-0.22336
-0.123688
-0.0790173
-0.0793488
-0.0896822
-0.0750176
-0.0753549
-0.0856941
-0.0860351
-0.0763778
-0.0767224
-0.0870686
-0.0974166
-0.0877661
-0.0831173
-0.0834699
-0.0938241
-0.0791798
-0.0745369
-0.0798954
-0.0952553
-0.0856164
-0.0659789
-0.0713425
-0.0767074
-0.0820734
-0.0624405
-0.0728087
-0.0831779
-0.0885481
-0.0739193
-0.0842914
-0.0996644
-0.100038
-0.0954127
-0.0657881
-0.0811642
-0.101541
-0.0869183
-0.0772962
-0.0976748
-0.108054
-0.0984334
-0.0888134
-0.0941938
-0.104575
-0.0949556
-0.095337
-0.105719
-0.116101
-0.121483
-0.106865
-0.117247
-0.122629
-0.133012
-0.118394
-0.128776
-0.144159
-0.134541
-0.124923
-0.130305
-0.140686
-0.131068
-0.111449
-0.101829
-0.10221
-0.0975895
-0.077969
-0.053348
-0.0387265
-0.0391045
-0.00448192
0.0201413
0.0247651
0.0293896
0.0190148
0.0636408
0.0682675
0.067895
0.0775233
0.0921525
0.0817826
0.0714136
0.0810456
0.0856786
0.0753126
0.0699476
0.0695837
0.0842209
0.0838593
0.0684988
0.0681396
0.0677815
0.0774247
0.0670692
0.066715
0.0863621
0.0960106
0.0856605
0.0753117
0.0699645
0.0646187
0.0542744
0.0439316
0.0435904
0.0532507
0.0529126
0.0375762
0.0372414
0.0569083
0.0465768
0.0412471
0.0309191
0.0305929
0.0252684
0.0249458
0.019625
0.029306
0.043989
0.0486738
0.0433605
0.0630491
0.0827398
0.0774323
0.0771269
0.0868235
0.116522
0.121223
0.115926
0.13063
0.140337
0.140046
0.0997576
0.109471
0.124187
0.133904
0.123624
0.128346
0.163071
0.157797
0.0925264
0.0572576
0.0669912
0.056727
0.0364652
0.0162057
0.0109486
0.0106939
-0.0145584
-0.0148084
-0.0150559
0.00969895
-0.000543725
-0.025784
-0.0210217
-0.011257
-0.0264898
-0.0417201
-0.0469479
-0.0271732
-0.022396
-0.0376162
-0.0528339
-0.043049
-0.0382615
-0.0984715
-0.148679
-0.163884
-0.199086
-0.229285
-0.129482
0.0753233
0.225132
0.414943
0.754756
0.874572
1.29439
1.27421
0.884037
0.263864
-0.131306
-0.206474
-0.156639
-0.0968008
-0.0819603
-0.0871171
-0.0922711
-0.0924225
-0.077571
-0.0827169
-0.10286
-0.108
-0.103138
-0.0932727
-0.103405
-0.108534
-0.0936605
-0.0987842
-0.103905
-0.114023
-0.124139
-0.104251
-0.114361
-0.119468
-0.114572
-0.0896737
-0.104772
-0.109868
-0.109961
-0.110051
-0.105138
-0.120223
-0.120305
-0.110384
-0.10546
-0.115533
-0.135603
-0.110671
-0.115736
-0.120798
-0.120857
-0.105913
-0.100966
-0.101017
-0.111065
-0.11111
-0.106152
-0.106191
-0.116227
-0.111261
-0.101292
-0.10132
-0.121345
-0.126367
-0.121386
-0.121403
-0.131416
-0.136427
-0.131435
-0.12644
-0.141442
-0.156442
-0.151438
-0.141432
-0.141423
-0.141411
-0.141396
-0.126378
-0.121358
-0.131335
-0.136308
-0.0962793
-0.0812474
-0.0762126
-0.056175
-0.0311346
-0.0160912
-0.0110451
0.00400395
0.0140558
0.0191105
0.0191681
0.0142285
0.0192918
0.0293579
0.0194269
0.00949875
0.0245734
0.029651
0.0147314
0.0098146
0.00990069
0.0249896
0.0150814
0.00517611
0.00527362
0.025374
0.0204772
0.0105833
0.0106922
0.020804
0.0109187
-0.00896384
-0.00384347
0.0112797
0.00640583
-0.00846523
-0.0133334
-0.00819877
-0.00306125
-0.0229209
-0.0277776
-0.0276315
-0.0174825
-0.0323307
-0.042176
-0.0370184
-0.026858
-0.0366947
-0.0465286
-0.0513595
-0.0211876
-0.0210129
-0.0208352
0.0043453
0.0145287
0.00971494
-0.00509593
0.0100961
0.035291
0.0504887
0.0506893
0.0558929
0.0810992
0.0863085
0.0665206
0.0517357
0.0669536
0.0721744
0.067398
0.0626246
0.077854
0.113086
0.123322
0.0685596
0.0438006
0.0290445
0.0142912
-0.0154591
-0.0302066
-0.0249512
-0.0396929
-0.0444317
-0.0391676
-0.0289007
-0.0236308
-0.033358
-0.0430824
-0.0328039
-0.0325224
-0.0522381
-0.0619509
-0.0366608
-0.0363679
-0.051072
-0.0607732
-0.0454716
-0.035167
-0.0498596
-0.0645493
-0.0692361
-0.13392
-0.158601
-0.208279
-0.232954
-0.107627
0.107704
0.333037
0.683373
1.06371
1.24905
1.1644
0.659747
0.0700975
-0.204549
-0.194193
-0.108834
-0.0784715
-0.0831066
-0.0977389
-0.102368
-0.0869948
-0.0916186
-0.0912395
-0.105858
-0.105473
-0.0850852
-0.0846947
-0.0943015
-0.0989055
-0.0835066
-0.088105
-0.0977005
-0.107293
-0.0968832
-0.0964704
-0.0860548
-0.0956365
-0.0852154
-0.0747915
-0.0893649
-0.0939355
-0.0835034
-0.0730686
-0.082631
-0.0871908
-0.0867478
-0.0763021
-0.0908538
-0.0954028
-0.0949491
-0.0794927
-0.0940337
-0.108572
-0.0981077
-0.0876408
-0.0871713
-0.0916992
-0.0912245
-0.0907472
-0.0802673
-0.0897849
-0.0792999
-0.0738124
-0.0783224
-0.0778299
-0.0973349
-0.0868374
-0.0763374
-0.090835
-0.10033
-0.0948228
-0.0793131
-0.093801
-0.103287
-0.0977697
-0.0772505
-0.071729
-0.0762052
-0.060679
-0.0351506
-0.0246199
-0.029087
-0.0235518
-0.0080144
0.0125252
0.00306693
0.0136108
0.0291569
0.0447051
0.0402553
0.0358077
0.0413621
0.0519185
0.0474769
0.0480374
0.0635998
0.0641642
0.0697304
0.0602986
0.0508687
0.0714406
0.0670144
0.06259
0.0631673
0.0837464
0.0743273
0.0649099
0.0554941
0.06108
0.0616676
0.0522567
0.0428474
0.0484397
0.0490335
0.0346288
0.0402256
0.0508238
0.0464234
0.0470244
0.0276267
0.0332304
0.0438354
0.0394416
0.0250491
0.0156577
0.0262676
0.0368785
0.0224906
0.0181037
0.0237179
0.0293331
0.0149493
0.0155664
0.0411845
0.0618034
0.0524231
0.0580437
0.083665
0.0892871
0.0899099
0.0905333
0.106157
0.101782
0.102407
0.113033
0.143659
0.164286
0.154913
0.13554
0.121168
0.126796
0.137425
0.123053
0.133682
0.169311
0.18994
0.140569
0.091198
0.091827
0.087456
0.0480849
0.0437137
0.0293423
0.0199706
0.0105987
0.0112265
0.0318539
0.017481
0.0131076
-0.00626622
-0.00564058
-0.0050155
-0.019391
-0.0187672
-0.023144
0.00747838
-0.00689997
-0.0212791
-0.00565918
-0.0000401
-0.024422
-0.0438049
-0.0831888
-0.0975738
-0.11696
-0.181347
-0.240736
-0.185126
-0.0295166
0.166091
0.421697
0.802302
1.09791
1.18851
0.974107
0.424705
-0.0646977
-0.234103
-0.173509
-0.137918
-0.062328
-0.0617402
-0.0711543
-0.0705704
-0.0599886
-0.0644088
-0.0788312
-0.0832557
-0.0726825
-0.0821115
-0.0965428
-0.0959765
-0.0904126
-0.0948511
-0.104292
-0.103736
-0.0931819
-0.0976307
-0.102082
-0.106536
-0.0909932
-0.080453
-0.0849156
-0.114381
-0.11885
-0.103321
-0.0977954
-0.097273
-0.101754
-0.106238
-0.0907246
-0.120215
-0.119708
-0.109205
-0.118706
-0.10321
-0.117717
-0.102228
-0.116742
-0.12126
-0.110781
-0.105307
-0.0898355
-0.0993683
-0.113905
-0.113445
-0.11299
-0.122538
-0.12709
-0.131646
-0.131206
-0.135771
-0.150339
-0.164912
-0.149489
-0.13407
-0.143655
-0.168245
-0.152839
-0.137438
-0.137041
-0.146648
-0.13126
-0.135876
-0.125497
-0.105123
-0.0797534
-0.0543884
-0.0490281
-0.0486725
-0.0233218
-0.0129759
-0.00763483
-0.00729865
-0.0119674
-0.0116411
-0.00131976
-0.00100344
0.00430784
0.034614
0.0299152
0.0402111
0.0405019
0.0457876
0.031068
0.00634317
-0.00838692
0.0218777
0.047137
0.0323909
0.00763953
0.0278827
0.0281205
0.0183528
0.0135797
0.0188011
0.0290169
0.00922729
-0.00556792
-0.0103687
0.00482493
0.010013
0.0251954
0.0303721
0.0305432
0.000708586
-0.0341317
-0.0389777
-0.0238295
-0.0186869
-0.0185502
-0.00841919
-0.023294
-0.0381746
-0.038061
-0.0279532
-0.00785127
-0.00275518
-0.0176649
-0.0225805
-0.022502
-0.0024294
-0.00736265
-0.00230179
0.00275316
0.0228022
0.0278454
0.0328826
0.0179139
0.0079393
0.0229588
0.0329723
0.0629799
0.0929816
0.102977
0.0779672
0.0629511
0.0929291
0.112901
0.0928673
0.0678276
0.0827819
0.11273
0.122673
0.107609
0.12754
0.152465
0.132384
0.0572972
0.0372045
0.00710589
-0.00299851
-0.00310873
-0.0132248
-0.0183466
-0.0134742
-0.0336076
-0.0337467
-0.0288916
-0.0240422
-0.0291985
-0.0293605
-0.0245281
-0.0247014
-0.0348804
-0.050065
-0.0452551
-0.0404509
-0.0506521
-0.060859
-0.0860713
-0.126289
-0.161512
-0.201741
-0.216975
-0.172215
-0.0374595
0.14229
0.322035
0.551774
0.846508
1.09624
1.24596
1.36568
1.29539
0.8901
0.269804
-0.125498
-0.215805
-0.176117
-0.116434
-0.0967553
-0.0870817
-0.082413
-0.102749
-0.0930898
-0.0984353
-0.103785
-0.0991402
-0.0994995
-0.0948634
-0.120232
-0.125605
-0.105982
-0.101363
-0.111749
-0.13214
-0.132534
-0.117933
-0.103335
-0.118742
-0.119153
-0.119568
-0.109987
-0.12541
-0.130837
-0.106267
-0.111701
-0.127139
-0.127581
-0.138026
-0.118475
-0.133927
-0.144383
-0.149842
-0.130305
-0.12577
-0.12624
-0.131712
-0.127187
-0.132666
-0.143147
-0.148631
-0.139119
-0.144609
-0.155102
-0.165598
-0.156096
-0.156597
-0.172101
-0.187607
-0.188115
-0.188626
-0.199139
-0.204655
-0.195172
-0.195692
-0.191214
-0.196738
-0.192264
-0.147791
-0.123321
-0.108852
-0.0843854
-0.0449201
-0.0254563
-0.0209941
-0.0165333
0.00292606
0.0223841
0.016841
0.0112966
0.0257511
0.0202045
0.029657
0.0241085
0.0335591
0.038009
0.0274581
0.0219065
0.0313544
0.0408017
0.0402485
0.024695
0.0291411
0.0435869
0.0430325
0.032478
0.0169235
0.0163689
0.0158144
0.000259991
-0.000294192
0.00415189
0.0235983
-0.00195488
-0.0075076
0.00194021
0.00638862
0.0058377
-0.0147125
-0.00526188
-0.000810402
-0.011358
-0.0319046
-0.0224501
-0.0179945
-0.0235377
-0.0290796
-0.0296202
-0.0151594
-0.00569713
-0.0162333
-0.0167679
0.0026991
0.0171679
0.0216384
0.0211108
0.0305852
0.0500615
0.0495399
0.0540203
0.063503
0.0729879
0.0824751
0.0819646
0.0914566
0.100951
0.0954481
0.0849477
0.07445
0.0939551
0.0984629
0.0929736
0.0974873
0.137004
0.0865235
0.0510463
0.0355722
0.0251013
0.0146337
-0.00583061
-0.0312915
-0.0267489
-0.0222029
-0.0276533
-0.0431
-0.0235431
-0.0339825
-0.0444181
-0.0598498
-0.0352777
-0.0307016
-0.0361215
-0.0515374
-0.0469492
-0.0423568
-0.0527602
-0.113159
-0.133554
-0.168945
-0.219331
-0.274713
-0.24009
-0.120462
0.0241695
0.158806
0.298447
0.558093
0.922744
1.2024
1.29706
1.11673
0.511396
-0.0839288
-0.249249
-0.134563
-0.0748726
-0.075177
-0.0954762
-0.0907701
-0.0760588
-0.0913422
-0.11162
-0.116893
-0.0971603
-0.0974222
-0.0926786
-0.107929
-0.0881748
-0.0984146
-0.103649
-0.103877
-0.1091
-0.0993174
-0.104529
-0.109735
-0.0949346
-0.0801288
-0.100317
-0.1005
-0.0956763
-0.0758471
-0.0860119
-0.0861709
-0.0963238
-0.0964708
-0.0816118
-0.0917467
-0.101876
-0.0869985
-0.0771153
-0.0822261
-0.0773307
-0.0624292
-0.0675216
-0.0776079
-0.0726879
-0.0677619
-0.0778296
-0.0728912
-0.0829466
-0.0729958
-0.0730388
-0.0830755
-0.093106
-0.0881304
-0.0781484
-0.0981603
-0.108166
-0.0981652
-0.0931583
-0.0931452
-0.0981258
-0.0931002
-0.0680684
-0.0730303
-0.0679859
-0.0479354
-0.0278786
-0.00281556
0.00725367
0.0123291
0.0274108
0.0374986
0.0425926
0.0376928
0.0527992
0.0579117
0.0680304
0.0531552
0.0582861
0.0684231
0.0635662
0.0587154
0.0688706
0.0690319
0.0641992
0.0643725
0.0645517
0.064737
0.0599281
0.0501252
0.0503282
0.0455371
0.0407518
0.0409723
0.0311987
0.0414308
0.0516687
0.0419123
0.0321615
0.0424165
0.0426771
0.0329433
0.0232151
0.0284924
0.0387752
0.0190636
0.00935734
0.0196565
0.0299611
0.015271
-0.00441375
-0.00409325
0.0262325
0.0365634
0.0318995
0.0572408
0.0825871
0.0879385
0.0932948
0.0986562
0.114022
0.134394
0.12977
0.11515
0.125536
0.115926
0.116321
0.11172
0.107125
0.137533
0.162946
0.118364
0.0787857
0.0692119
0.0446424
0.0100772
-0.00448389
0.00595919
0.0114064
0.00185756
-0.00268725
0.00277186
0.00823486
-0.0162983
-0.0258277
-0.0203534
-0.0248754
-0.0193938
-0.0239087
-0.00342003
0.00707207
-0.00743245
-0.0269336
-0.0214315
-0.0109262
-0.0504177
-0.0999062
-0.124392
-0.153874
-0.168353
-0.0228299
0.0426963
0.523225
0.928757
1.17929
1.17483
0.760368
0.110909
-0.233546
-0.198
-0.0824508
-0.0418998
-0.0613465
-0.0707912
-0.0552339
-0.0646746
-0.0691134
-0.0735504
-0.0829856
-0.0674191
-0.0618509
-0.101281
-0.0907099
-0.0801372
-0.074563
-0.0789875
-0.0734108
-0.0728328
-0.0672537
-0.0916735
-0.0910923
-0.0705102
-0.0599271
-0.0843432
-0.0987586
-0.0931732
-0.0775872
-0.0870007
-0.0914136
-0.0858261
-0.0902381
-0.0946499
-0.114061
-0.113473
-0.0878839
-0.082295
-0.0917061
-0.101117
-0.0905285
-0.10494
-0.104352
-0.108764
-0.0981759
-0.0975887
-0.107002
-0.106416
-0.10083
-0.0952453
-0.109661
-0.109078
-0.108495
-0.127914
-0.137333
-0.151753
-0.131175
-0.125598
-0.135021
-0.144446
-0.143873
-0.133301
-0.11273
-0.112161
-0.0665931
-0.0560271
-0.0804627
-0.0849001
-0.0793392
-0.0437802
-0.048223
-0.0476679
-0.0121147
0.00343643
0.0139854
-0.0104677
0.0000769
0.0156193
0.0161593
0.00669694
-0.00776784
-0.00223509
0.0132951
0.0238228
0.00434779
0.00987012
0.0203897
0.0209066
0.0114206
-0.00306828
0.0124399
0.0179452
-0.00155255
-0.0110534
-0.00555726
0.00993568
-0.00457456
-0.014088
-0.0136048
-0.00812487
-0.0126483
-0.0271752
-0.0217054
-0.0162392
-0.00577651
-0.0353174
-0.0248618
-0.02941
-0.0489618
-0.0535173
-0.0480765
-0.0426396
-0.0322065
-0.0367772
-0.0163519
0.00906952
0.00448697
0.00490042
-0.00469016
0.0407152
0.0511165
0.0415136
0.0569066
0.0822953
0.0776799
0.0730602
0.0784363
0.0738081
0.0791755
0.0695386
0.0848973
0.100252
0.110601
0.125947
0.0862878
0.0466242
0.0269561
0.0222835
-0.00739365
-0.0220754
-0.0217618
-0.0414528
-0.0511484
-0.0608487
-0.0355536
-0.0452633
-0.0499777
-0.0646967
-0.0594206
-0.0491492
-0.0488825
-0.0586206
-0.0483636
-0.0481113
-0.0628638
-0.0826212
-0.107383
-0.14215
-0.156922
-0.221699
-0.206481
-0.0362674
0.208941
0.479145
0.859344
1.17454
1.30973
1.20491
1.12509
0.115264
-0.199567
-0.219402
-0.164243
-0.104088
-0.0889388
-0.118794
-0.118654
-0.10852
-0.0933896
-0.108265
-0.108145
-0.118029
-0.107919
-0.112814
-0.127713
-0.122618
-0.112527
-0.112441
-0.12236
-0.122284
-0.122213
-0.107147
-0.122085
-0.132028
-0.121976
-0.111929
-0.111887
-0.121849
-0.106817
-0.121789
-0.141765
-0.136747
-0.121733
-0.121724
-0.121719
-0.12172
-0.111725
-0.111734
-0.126748
-0.136767
-0.11679
-0.111818
-0.116851
-0.126888
-0.126929
-0.111975
-0.117026
-0.137081
-0.14214
-0.132204
-0.142272
-0.157344
-0.172421
-0.157503
-0.162588
-0.177678
-0.187772
-0.17787
-0.172973
-0.183079
-0.18819
-0.173305
-0.148424
-0.143547
-0.133674
-0.103806
-0.0889408
-0.07408
-0.0742231
-0.0543702
-0.0445211
-0.0246759
-0.0348346
-0.0349971
0.00983668
0.0196667
0.029493
0.0343155
0.0491345
0.0539497
0.0437614
0.0435695
0.0583741
0.0631751
0.0629727
0.0377668
0.0675575
0.0623448
0.0621287
0.0469094
0.0466867
0.0564607
0.0512316
0.0409992
0.0357636
0.040525
0.0502832
0.0450383
0.0447905
0.0545396
0.0392857
0.0340289
0.0337692
0.0435066
0.0382412
0.022973
0.012702
0.0274282
0.0271518
0.0218727
0.00659095
0.0213066
0.0310197
0.0307302
0.00543824
0.0301438
0.0298469
0.0345476
0.039246
0.053942
0.0786357
0.0883272
0.0930164
0.0927034
0.102388
0.122071
0.121752
0.12643
0.131107
0.150781
0.130454
0.115124
0.114793
0.12446
0.139125
0.138788
0.14345
0.15311
0.167768
0.152424
0.112079
0.0917319
0.0763835
0.0510336
0.0206822
0.0353293
0.0299749
0.0196192
0.014262
0.00890358
0.00854382
0.0131828
-0.00217951
0.012457
0.00209231
-0.00327351
-0.00364046
0.00599151
0.00562242
-0.0047477
-0.0451188
-0.0904909
-0.120864
-0.171238
-0.176613
-0.0169882
0.202635
0.377258
0.59188
0.966501
1.27612
1.40074
1.17536
1.03498
-0.050402
-0.185784
-0.101167
-0.0515509
-0.0469349
-0.0573193
-0.0727041
-0.0780893
-0.0684748
-0.0638607
-0.0692469
-0.0796334
-0.0650201
-0.0704071
-0.0807942
-0.0961816
-0.0965691
-0.0819567
-0.0823444
-0.0877322
-0.08812
-0.0835079
-0.0988957
-0.109284
-0.114671
-0.0950591
-0.100447
-0.110834
-0.116222
-0.101609
-0.0969957
-0.102383
-0.112769
-0.108155
-0.0985414
-0.103927
-0.124313
-0.104698
-0.100082
-0.105467
-0.11085
-0.106234
-0.101617
-0.106999
-0.112382
-0.112763
-0.103144
-0.108525
-0.123904
-0.134284
-0.134662
-0.12504
-0.125418
-0.130795
-0.131171
-0.136546
-0.146921
-0.157295
-0.152668
-0.13304
-0.143412
-0.138782
-0.129152
-0.109521
-0.0998895
-0.0952568
-0.0806232
-0.0559887
-0.0313533
-0.021717
-0.0170796
0.00255867
0.00719797
0.00183829
-0.00352038
0.031122
0.0307654
0.0254099
0.0200555
0.0397022
0.03935
0.038999
0.0336491
0.0383003
0.0429528
0.0376064
0.0222612
0.0269172
0.0265745
0.031233
0.0158928
0.0155538
0.0302161
0.0248798
0.0245447
0.0242109
0.0188785
0.0135475
-0.00178219
-0.0071105
0.0125626
0.00223705
-0.00808705
-0.0134097
-0.018731
-0.0190508
-0.0243691
-0.0296859
-0.0200013
-0.0203152
-0.0306275
-0.0359383
-0.0312476
-0.0265554
-0.0268615
-0.0271662
-0.0124692
0.00722937
0.00692954
0.00663132
0.00133473
0.0310398
0.0307465
0.0354549
0.0401649
0.0498766
0.05959
0.0543052
0.064022
0.0837406
0.0684609
0.0481829
0.0629068
0.0676324
0.0773597
0.0820889
0.0868199
0.0915527
0.0512873
0.00602379
-0.0142379
0.000502274
-0.00475568
-0.0250118
-0.0502659
-0.0605182
-0.0407686
-0.041017
-0.0562635
-0.0665081
-0.0417507
-0.0469913
-0.0572299
-0.0574666
-0.0527012
-0.0529339
-0.0681645
-0.0583931
-0.0536196
-0.0588441
-0.0690665
-0.0742869
-0.0695051
-0.0847213
-0.134935
-0.185147
-0.215357
-0.215565
-0.0757702
0.129026
0.413825
0.773626
1.12343
1.28824
1.31304
0.727853
0.127665
-0.177521
-0.197704
-0.122885
-0.088064
-0.10324
-0.118415
-0.103586
-0.0937559
-0.103923
-0.119088
-0.10425
-0.0994104
-0.109568
-0.119723
-0.119876
-0.110027
-0.105175
-0.12532
-0.120463
-0.105604
-0.110742
-0.130878
-0.136011
-0.111141
-0.106269
-0.116395
-0.121518
-0.111638
-0.111756
-0.111872
-0.121984
-0.122094
-0.107202
-0.117307
-0.122409
-0.122508
-0.107605
-0.122699
-0.132791
-0.12788
-0.122966
-0.118049
-0.13313
-0.133208
-0.113283
-0.118355
-0.118425
-0.123492
-0.108556
-0.108617
-0.118675
-0.128731
-0.128784
-0.118834
-0.133881
-0.138925
-0.133966
-0.134004
-0.13404
-0.149072
-0.134102
-0.119129
-0.119152
-0.129173
-0.119191
-0.104206
-0.0842178
-0.0842266
-0.0592325
-0.0342353
-0.0192351
-0.0242319
-0.0292256
0.0107837
0.0207961
0.0108115
0.00583003
0.0208516
0.0358764
0.0309042
0.0159351
0.0259691
0.0460063
0.0260466
0.0260901
0.0411367
0.0461865
0.0412394
0.0262955
0.0313548
0.0364173
0.0364829
0.0265518
0.0216239
0.0216992
0.0267777
0.0218595
0.0169444
0.0270326
0.0321241
0.0222188
0.00731676
0.017418
0.0275224
0.00763018
-0.00225881
0.00285548
0.012973
0.0130939
-0.00678198
-0.00665456
0.00347615
-0.00138985
-0.0162526
-0.016112
0.00403194
-0.00582086
-0.00567035
0.00948345
0.0346406
0.044801
0.0349647
0.0401318
0.0703021
0.0704757
0.0756527
0.085833
0.101017
0.106203
0.111394
0.091587
0.0967838
0.0969839
0.0871872
0.0823939
0.0976038
0.112817
0.108034
0.118253
0.143476
0.143703
0.0889322
0.049165
0.0444011
0.0496404
0.029883
0.00512877
-0.00462222
-0.01437
-0.0241146
-0.0288559
-0.0335941
-0.0233291
-0.0230609
-0.0277895
-0.042515
-0.0372373
-0.0219565
-0.0216726
-0.0313855
-0.0260954
-0.0108021
-0.0205058
-0.0402064
-0.0399039
-0.0745984
-0.12429
-0.153978
-0.203664
-0.198346
-0.0880257
0.0872978
0.142624
0.572954
0.938286
1.16362
1.20396
0.9243
0.359644
-0.10501
-0.21966
-0.164308
-0.0889529
-0.0585952
-0.0582347
-0.0628715
-0.0525056
-0.062137
-0.0617658
-0.0713919
-0.0560154
-0.0556363
-0.0702547
-0.0798705
-0.0644838
-0.0540945
-0.0737028
-0.0733087
-0.0579121
-0.0525131
-0.0571117
-0.056708
-0.0513019
-0.0408936
-0.0554829
-0.05007
-0.0496549
-0.0342376
-0.0538181
-0.0683964
-0.0579727
-0.0525468
-0.0571189
-0.066689
-0.0512571
-0.0358232
-0.0353873
-0.0549496
-0.04951
-0.0440685
-0.0486252
-0.0581801
-0.0677333
-0.0622848
-0.0618345
-0.0563826
-0.0559291
-0.040474
-0.0500174
-0.0745592
-0.0740995
-0.0486384
-0.0431759
-0.0377119
-0.0572467
-0.0567801
-0.0513122
-0.0558431
-0.0753728
-0.0699014
-0.0594288
-0.0589551
-0.0584803
-0.0630045
-0.0525278
-0.0570501
-0.0815715
-0.086092
-0.0656118
-0.0551307
-0.0596489
-0.0541663
-0.0286831
-0.0131993
0.0122852
0.0127701
0.0482556
0.0587416
0.054228
0.0397147
0.0452019
0.0506893
0.051177
0.0416649
0.057153
0.0676412
0.0631296
0.0286179
0.0441063
0.0545947
0.070083
0.0455712
0.0360592
0.056547
0.0720346
0.0725219
0.0630089
0.0684955
0.0689817
0.0444674
0.0199526
0.0254372
0.0359213
0.0414048
0.0218875
0.0323696
0.0528508
0.0233313
-0.0161891
-0.00571039
0.0247674
0.0202442
-0.00428008
-0.0188054
-0.00833184
0.00214056
-0.00738825
-0.00691831
0.0285503
0.0190176
-0.0105164
-0.0150519
0.00541111
0.0258726
0.0263326
0.00179094
0.0272477
0.0527027
0.053156
0.0536075
0.0890572
0.089505
0.0849509
0.0753949
0.0808369
0.0962769
0.106715
0.0971505
0.0925841
0.103015
0.123445
0.123871
0.114296
0.0647181
0.0451379
0.0205551
0.00596991
-0.00361785
-0.0182082
-0.0278012
-0.0323968
-0.0319951
-0.0165962
-0.0412
-0.0658067
-0.0404162
-0.0350286
-0.044644
-0.0392623
-0.0388837
-0.0335081
-0.0331356
-0.0327662
-0.0424
-0.022037
-0.0266773
-0.0513208
-0.0659676
-0.0706178
-0.0952714
-0.129928
-0.179589
-0.214253
-0.15392
0.0264087
0.256734
0.567056
0.942374
1.20269
1.208
0.848306
0.263609
-0.116092
-0.235796
-0.185505
-0.130217
-0.0999337
-0.114654
-0.114378
-0.109107
-0.108839
-0.133576
-0.138316
-0.113061
-0.0928101
-0.102563
-0.107321
-0.112082
-0.106848
-0.116619
-0.126393
-0.121172
-0.0959553
-0.120743
-0.150535
-0.150332
-0.135133
-0.124938
-0.129748
-0.124563
-0.114382
-0.119206
-0.144034
-0.138867
-0.123705
-0.108547
-0.123394
-0.133245
-0.133101
-0.127962
-0.122828
-0.137699
-0.127574
-0.122454
-0.142338
-0.147228
-0.142122
-0.122022
-0.121926
-0.146835
-0.136748
-0.141667
-0.14159
-0.161519
-0.166452
-0.15639
-0.146334
-0.166282
-0.176235
-0.156192
-0.161155
-0.176123
-0.186096
-0.181074
-0.191056
-0.201044
-0.216037
-0.201034
-0.181037
-0.186044
-0.166057
-0.151074
-0.121097
-0.111124
-0.0961566
-0.066194
-0.0362363
-0.0262836
-0.0263359
-0.0263931
0.00354468
0.0134775
0.0184055
0.0183284
0.0482465
0.0481596
0.0380678
0.0279711
0.0478695
0.052763
0.0576516
0.0525353
0.0524142
0.0572882
0.0471573
0.0320217
0.0318812
0.0467359
0.0365858
0.0214309
0.0262713
0.0361069
0.0259377
0.0257639
0.0205853
0.0404021
0.0452141
0.0200216
0.0148243
0.0196225
0.014416
0.00420502
-0.00101057
0.0187693
0.0235446
0.0133155
0.00308185
0.00284375
0.0176012
0.0123543
0.00710294
0.0168472
0.0315872
0.0413228
0.0310542
0.0407812
0.065504
0.0752227
0.0749371
0.0746473
0.0993534
0.114055
0.0987533
0.103447
0.128137
0.147823
0.132505
0.127183
0.131857
0.131527
0.126193
0.135856
0.150514
0.160169
0.184821
0.154468
0.109112
0.0887524
0.0633891
0.0380223
0.0376519
0.0272781
0.0119008
0.00652011
0.00613603
0.0107486
0.0153579
-0.0000361
-0.000433324
0.00916626
0.00876269
-0.006644
-0.0120538
-0.00246659
0.00211759
-0.0133012
-0.0437229
-0.0641475
-0.099575
-0.135005
-0.200438
-0.225874
-0.141312
0.00824646
0.192803
0.417356
0.761908
1.13146
1.331
1.24555
0.770088
0.129627
-0.200836
-0.181301
-0.0917685
-0.0572381
-0.0777098
-0.0881836
-0.0736594
-0.0641372
-0.0746169
-0.0800985
-0.0805819
-0.0710671
-0.0815541
-0.0970427
-0.0925331
-0.083025
-0.0835186
-0.0940136
-0.0945102
-0.0800081
-0.0755075
-0.0860082
-0.0815102
-0.0770135
-0.067518
-0.0730237
-0.0735304
-0.0640383
-0.0645472
-0.080057
-0.0905678
-0.0810795
-0.0765921
-0.0871054
-0.0926195
-0.0981343
-0.0936497
-0.0991658
-0.104682
-0.1002
-0.0907173
-0.101235
-0.116754
-0.0972726
-0.0927917
-0.093311
-0.0988306
-0.10435
-0.0948701
-0.0853899
-0.10091
-0.12643
-0.116949
-0.102469
-0.127989
-0.133508
-0.124027
-0.114546
-0.125064
-0.135582
-0.1211
-0.106617
-0.112133
-0.107649
-0.0781645
-0.0586792
-0.0491931
-0.0447064
-0.0202188
0.00926962
0.0137589
0.00324914
0.0177403
0.0422326
0.0417258
0.0362202
0.0457157
0.0502124
0.0597104
0.0442096
0.0387102
0.0632121
0.0727154
0.0572201
0.0517264
0.0512341
0.0457435
0.0602544
0.044767
0.0592813
0.0687974
0.0533152
0.0428349
0.0423563
0.0568797
0.0464051
0.0259324
0.0304617
0.0399931
0.0395266
0.0240622
0.0236
0.03814
0.0276822
0.0172268
0.0117736
0.0213229
0.0258745
0.0104285
-0.0000149
0.00954412
0.0141057
0.0136699
0.0182367
0.0428061
0.0473782
0.0519531
0.0415307
0.0611111
0.0856943
0.0902804
0.0848694
0.0944613
0.109056
0.113654
0.0882549
0.0778588
0.0974658
0.102076
0.0916892
0.0913057
0.135925
0.120548
0.0701744
0.0298039
0.0294367
0.0140729
-0.0012876
-0.0316446
-0.0269982
-0.00734836
-0.012695
-0.0330381
-0.0283777
-0.0237136
-0.034046
-0.0543748
-0.0446999
-0.0350213
-0.050339
-0.050653
-0.0459633
-0.0362697
-0.0315724
-0.0418713
-0.0471663
-0.0474574
-0.0927447
-0.138028
-0.158307
-0.158583
-0.218854
-0.209122
-0.0393855
0.200355
0.5051
0.879848
1.1446
1.16436
0.814119
0.183884
-0.216347
-0.236574
-0.126796
-0.0870145
-0.0972285
-0.107438
-0.0976439
-0.0928452
-0.113042
-0.118235
-0.103423
-0.108608
-0.123787
-0.128963
-0.119134
-0.104301
-0.114463
-0.129622
-0.114775
-0.0999245
-0.105069
-0.11521
-0.105346
-0.100478
-0.110605
-0.120728
-0.110846
-0.10096
-0.106069
-0.111174
-0.121275
-0.121371
-0.111463
-0.11655
-0.126632
-0.10671
-0.0967841
-0.116853
-0.111918
-0.116978
-0.102034
-0.112085
-0.122132
-0.112174
-0.102212
-0.107245
-0.112274
-0.112298
-0.102318
-0.112333
-0.122344
-0.11735
-0.107352
-0.10735
-0.112343
-0.122331
-0.107315
-0.112295
-0.12227
-0.127241
-0.122207
-0.112169
-0.107127
-0.10708
-0.0920289
-0.0769733
-0.0769134
-0.076849
-0.0567804
-0.0267074
-0.0216301
-0.0315484
-0.0164625
0.00362773
0.0187222
-0.00117903
0.013924
0.0240312
0.0191427
0.0242583
0.0193781
0.0295022
0.0396303
0.0197626
0.0148991
0.0250396
0.0151842
0.0203329
0.000485676
0.00564246
0.0208032
0.010968
-0.0038632
0.00130951
0.0164862
0.0166667
0.00685118
0.0020395
0.0122317
-0.00257233
-0.00237253
-0.00716895
-0.00696162
0.00324945
-0.00653578
-0.0163173
-0.0110952
-0.0108695
-0.0206401
-0.0304072
-0.0151707
-0.00493065
-0.00468713
0.00055987
0.0208103
0.0310642
0.0263214
0.026582
0.046846
0.0571132
0.0623838
0.0576575
0.0679345
0.0932147
0.103498
0.0937844
0.099074
0.109367
0.104662
0.0799608
0.0702624
0.105567
0.115874
0.111185
0.121498
0.151813
0.102132
0.0574534
0.0427775
0.0281042
0.00843351
-0.0212346
-0.0359001
-0.0155632
-0.000223746
-0.00488188
-0.0145376
-0.014191
-0.00884202
-0.0134908
-0.0331373
-0.0377816
-0.0124237
-0.0120637
-0.0217016
-0.0263374
-0.0159712
-0.0106031
-0.055233
-0.069861
-0.114487
-0.159111
-0.208734
-0.133355
0.057026
0.282409
0.592793
0.958178
1.19857
1.27395
1.14934
0.714736
0.185129
-0.149477
-0.244081
-0.228685
-0.153287
-0.0728875
-0.0524873
-0.0720861
-0.0866838
-0.0612806
-0.0658765
-0.0754714
-0.0850655
-0.0696589
-0.0792514
-0.0838433
-0.0834345
-0.0580251
-0.0676151
-0.0722046
-0.0767936
-0.0663821
-0.0459703
-0.0555581
-0.0901456
-0.0847328
-0.0743198
-0.0789067
-0.0884934
-0.0880801
-0.0676667
-0.0872533
-0.09684
-0.0964268
-0.0760137
-0.0906008
-0.0851882
-0.0947758
-0.0793638
-0.0689521
-0.0885409
-0.0931301
-0.0777199
-0.0723101
-0.096901
-0.0914926
-0.0760848
-0.0556777
-0.0602715
-0.064866
-0.0694615
-0.0590578
-0.0636551
-0.0932534
-0.0978528
-0.0774532
-0.0820548
-0.0816576
-0.0662615
-0.0558668
-0.0604734
-0.0900813
-0.0996907
-0.0943014
-0.0789137
-0.0835275
-0.0831429
-0.0677599
-0.0473786
-0.0469989
-0.0316211
-0.021245
0.00412927
0.00950165
0.0248721
0.0352406
0.0556071
0.0459716
0.0313339
0.0366942
0.0520523
0.0424081
0.0327617
0.0231131
0.0434621
0.0588087
0.0491529
0.0394947
0.034834
0.0451707
0.0405049
0.0308365
0.0361654
0.0364917
0.0168152
0.012136
0.00745401
0.0177692
0.0180815
0.00839083
0.0136973
0.0340007
0.0343012
0.0145986
-0.0051071
0.0051841
-0.00452785
-0.009243
-0.0139614
0.00631702
0.0115921
-0.00313612
-0.0128677
-0.0176027
-0.00734107
-0.00208291
-0.0268282
-0.0115771
0.00867056
0.0139146
0.014155
0.0293919
0.059625
0.0698545
0.0650802
0.0853022
0.10052
0.0907348
0.0959454
0.0911521
0.0763549
0.0715539
0.0817489
0.0819399
0.0921269
0.11731
0.127489
0.132664
0.0628348
0.0330015
0.0181642
0.00832266
0.00347698
-0.0113729
-0.046227
-0.0560853
-0.0459478
-0.0258147
-0.0506858
-0.0555612
-0.045441
-0.0253251
-0.0352136
-0.0301064
-0.0300036
-0.0149053
-0.00481134
-0.0197219
-0.0446368
-0.0695563
-0.11448
-0.149409
-0.159342
-0.179279
-0.229221
-0.164167
0.0308814
0.290926
0.610966
0.971001
1.18603
1.19606
0.741079
0.0860954
-0.218893
-0.218885
-0.133882
-0.093884
-0.0938905
-0.108902
-0.103917
-0.103938
-0.108963
-0.113993
-0.0990273
-0.0940664
-0.10911
-0.109159
-0.104212
-0.0942699
-0.0943325
-0.1094
-0.109472
-0.0995484
-0.11963
-0.134716
-0.139806
-0.124902
-0.135002
-0.140106
-0.130216
-0.10033
-0.115448
-0.125572
-0.140699
-0.125832
-0.115969
-0.116111
-0.126257
-0.116408
-0.116564
-0.116724
-0.121889
-0.122058
-0.112232
-0.12241
-0.132593
-0.14278
-0.127972
-0.133169
-0.133369
-0.138575
-0.128784
-0.143999
-0.149217
-0.15444
-0.144668
-0.159899
-0.180135
-0.190376
-0.17562
-0.175869
-0.186123
-0.18638
-0.186642
-0.171908
-0.172178
-0.167453
-0.132731
-0.108014
-0.0983005
-0.0685914
-0.0338863
-0.00918527
0.000511735
0.000204747
0.0148938
0.0445789
0.04926
0.0539373
0.0386107
0.0632802
0.042946
0.0476079
0.0372661
0.0569205
0.0665712
0.0662182
0.0558616
0.0705013
0.0751375
0.05977
0.054399
0.0540246
0.0636466
0.0482652
0.0428804
0.0524921
0.0471006
0.0367056
0.0313074
0.040906
0.0605013
0.0500934
0.0446824
0.0342682
0.0388509
0.0384306
0.0280072
0.0225809
0.0371516
0.0317193
0.0212842
0.0158462
0.0254054
0.0199618
0.00951552
0.0140665
0.0186148
0.0431604
0.0427035
0.047244
0.0517819
0.0713174
0.0758504
0.080381
0.0849093
0.109435
0.118959
0.11848
0.132999
0.157516
0.147031
0.126544
0.126054
0.120563
0.14507
0.134574
0.134077
0.168578
0.188077
0.117574
0.0920698
0.0765637
0.0710559
0.0355464
0.0050354
0.00952283
0.0190088
0.00349325
-0.0170237
-0.012542
-0.00306167
-0.0135826
-0.0191048
-0.0196282
-0.000152801
-0.0106785
-0.0212053
-0.0217331
-0.027262
-0.0527918
-0.118322
-0.143854
-0.154387
-0.21492
-0.255454
-0.260988
-0.111524
0.0729403
0.277404
0.551867
0.961329
1.27079
1.32025
0.874714
0.179174
-0.176365
-0.171905
-0.0924447
-0.0679848
-0.063525
-0.0690653
-0.0696057
-0.085146
-0.0906863
-0.0712265
-0.0867666
-0.107306
-0.0928462
-0.0883857
-0.0889248
-0.0944637
-0.0950021
-0.0855402
-0.101078
-0.0916149
-0.0971514
-0.0776874
-0.0832228
-0.0887575
-0.0892916
-0.0948249
-0.0903574
-0.100889
-0.0914199
-0.0919499
-0.0974789
-0.103007
-0.113534
-0.08906
-0.104585
-0.110109
-0.100631
-0.0961527
-0.0866728
-0.0971917
-0.102709
-0.0932255
-0.0837403
-0.0942537
-0.109766
-0.100276
-0.0957849
-0.111292
-0.121798
-0.117302
-0.107804
-0.118305
-0.128804
-0.114301
-0.109796
-0.120289
-0.110781
-0.116271
-0.0917581
-0.0922437
-0.0927273
-0.0732088
-0.0536882
-0.0241655
-0.0246406
-0.0151135
0.00941583
0.0139474
0.0334813
0.0230175
0.0425561
0.057097
0.0316404
0.0311863
0.0407346
0.0502854
0.0298388
0.0293947
0.0389533
0.0485144
0.0480783
0.0376448
0.032214
0.041786
0.0463608
0.0409384
0.0305188
0.045102
0.0296881
0.0292772
0.0238692
0.0284641
0.038062
0.017663
0.00726694
0.011874
0.0114841
0.0210974
0.00071374
0.000333281
0.00995601
0.00458194
-0.0107889
-0.0111565
-0.0015208
-0.0118818
-0.0122395
-0.00759385
-0.00294484
-0.00829245
-0.00363666
-0.0139774
0.00568522
0.0153514
0.00502096
0.00969407
0.0393707
0.0490509
0.0537346
0.0584219
0.0831128
0.0828073
0.0925054
0.0922072
0.0869126
0.0966218
0.0863346
0.0660511
0.0757713
0.0954953
0.090223
0.0899545
0.10969
0.114429
0.0541717
0.0139184
0.0136689
-0.00157671
-0.0168185
-0.0420564
-0.0522904
-0.0375205
-0.0277468
-0.0429691
-0.0481875
-0.063402
-0.0536125
-0.0588191
-0.0640217
-0.0642203
-0.049415
-0.0596057
-0.0697923
-0.064975
-0.0651537
-0.115328
-0.170499
-0.210666
-0.255828
-0.230987
-0.101141
0.0337083
0.143562
0.25342
0.418281
0.483147
1.02802
1.22789
1.23277
0.907651
0.267537
-0.172573
-0.242678
-0.16778
-0.0978775
-0.0929709
-0.10806
-0.123146
-0.108227
-0.0983038
-0.108377
-0.123446
-0.118511
-0.0985713
-0.0936279
-0.103681
-0.108729
-0.103773
-0.0988139
-0.10885
-0.118882
-0.113911
-0.108935
-0.113955
-0.123971
-0.118983
-0.103991
-0.108995
-0.108995
-0.108991
-0.0889827
-0.0939706
-0.108955
-0.108934
-0.0989104
-0.103882
-0.12385
-0.133814
-0.118775
-0.118731
-0.128683
-0.133631
-0.118576
-0.113516
-0.113453
-0.118386
-0.108314
-0.103239
-0.103161
-0.113078
-0.102991
-0.0929011
-0.107807
-0.122709
-0.117607
-0.112502
-0.112393
-0.12228
-0.117163
-0.102043
-0.0969189
-0.106791
-0.0966598
-0.0765248
-0.0663861
-0.0562439
-0.056098
-0.0309485
-0.0057955
-0.0106389
-0.0154788
-0.000315142
0.024852
0.0250226
0.0101968
0.0203743
0.0255553
0.0357397
0.0259275
0.0361187
0.0513133
0.0415112
0.0367124
0.0319169
0.0521247
0.0573358
0.0475501
0.0377677
0.0529884
0.0532123
0.0384394
0.0236697
0.048903
0.0341395
0.024379
0.0196216
0.0298673
0.0251159
0.0203676
0.0106222
0.0158797
0.0161402
0.0164036
0.00166983
0.00693894
0.00721089
-0.00251436
-0.00723683
-0.0119565
0.0033265
-0.0213878
-0.0260993
-0.0258082
-0.0205145
-0.0152181
-0.0299192
-0.0396177
-0.0193137
-0.0140071
-0.0136981
-0.0183866
-0.0130726
0.00224371
0.0125624
0.0128835
0.0182069
0.0435327
0.0538607
0.0441909
0.0595234
0.0798581
0.0751949
0.0855339
0.095875
0.111218
0.111563
0.0969107
0.09226
0.0926112
0.107964
0.0983196
0.103677
0.144035
0.154396
0.104759
0.085123
0.055489
0.0308568
0.0112262
-0.0134026
-0.0130299
-0.0176555
-0.0172796
-0.0219022
-0.0265232
-0.0161427
-0.0157608
-0.0403774
-0.0349927
-0.0196066
-0.0242191
-0.0338304
-0.0334404
-0.0230491
-0.0276566
-0.0322629
-0.0318681
-0.0214722
-0.0310751
-0.035677
-0.0452779
-0.104878
-0.124477
-0.164075
-0.228672
-0.213268
-0.057863
0.107542
0.337949
0.703356
1.03376
1.17917
1.02958
0.539991
0.0104014
-0.209188
-0.193776
-0.118364
-0.0629517
-0.0675388
-0.0821255
-0.0817118
-0.0662977
-0.0758833
-0.0854686
-0.0900537
-0.0896385
-0.0792231
-0.0788076
-0.0883919
-0.0779761
-0.0675602
-0.0771443
-0.0817284
-0.0763125
-0.0758967
-0.0854809
-0.100065
-0.0996497
-0.0792344
-0.0738192
-0.0834043
-0.0829897
-0.0725753
-0.0721613
-0.0717476
-0.0813343
-0.0759214
-0.080509
-0.080097
-0.0746856
-0.0842747
-0.0788643
-0.0734546
-0.0730454
-0.067637
-0.0622292
-0.0668221
-0.0764158
-0.0760102
-0.0656055
-0.0702016
-0.0847985
-0.0843964
-0.0739951
-0.0585948
-0.0881955
-0.0827972
-0.0773999
-0.0770037
-0.0766086
-0.0962146
-0.0758218
-0.0704301
-0.0900396
-0.0946504
-0.0792625
-0.0738758
-0.0834904
-0.0831064
-0.0777237
-0.0623425
-0.0269627
-0.0265843
-0.0112074
0.019168
0.0295418
0.0249141
0.0252848
0.0356539
0.0360214
0.0163872
0.0317513
0.0521137
0.0574744
0.0428333
0.0481904
0.0535457
0.0588991
0.0442507
0.0396004
0.0449482
0.055294
0.0506379
0.0409798
0.0463197
0.0466576
0.0369934
0.0373272
0.0426588
0.0429883
0.0283157
0.00864091
0.0189639
0.0242847
0.0196033
0.0149196
0.0202337
0.0305454
0.0308548
0.0161619
0.0164667
0.016769
0.022069
0.00736649
-0.00733841
-0.00204578
0.00824438
-0.011468
-0.0161828
-0.0259002
-0.0106201
-0.0103426
-0.0200677
-0.0247955
-0.00952578
-0.0142588
-0.0339944
-0.0287327
0.00152632
0.00178262
0.0270362
0.027287
0.0475351
0.0577804
0.0530229
0.0532627
0.0584996
0.0837336
0.0839649
0.0941932
0.114419
0.119641
0.104861
0.0700779
0.0852917
0.110503
0.125711
0.105916
0.116118
0.146317
0.116513
0.061706
0.036896
0.037083
0.027267
-0.012552
-0.0173741
-0.0221993
-0.0120276
-0.0118589
-0.0316934
-0.0265309
-0.0163716
-0.0212153
-0.0260622
-0.0309123
-0.0307654
-0.0306217
-0.0354812
-0.0453438
-0.0452096
-0.0650786
-0.0499507
-0.024826
-0.0197046
-0.0245862
-0.0394711
-0.0743592
-0.114251
-0.134145
-0.179043
-0.218944
-0.173848
-0.00875512
0.181334
0.451421
0.816504
1.10158
1.19166
1.19673
0.531803
0.0318701
-0.168066
-0.188006
-0.132949
-0.0878948
-0.097844
-0.102797
-0.0927522
-0.0827112
-0.0976733
-0.107639
-0.102607
-0.097579
-0.087554
-0.0975322
-0.0975136
-0.102498
-0.0974859
-0.102477
-0.097471
-0.107468
-0.117469
-0.107472
-0.112479
-0.102489
-0.0925022
-0.107518
-0.112538
-0.10756
-0.112586
-0.142614
-0.152646
-0.142681
-0.117719
-0.10776
-0.132804
-0.122851
-0.107902
-0.112955
-0.113011
-0.12807
-0.113133
-0.113198
-0.113266
-0.133338
-0.118412
-0.123489
-0.128569
-0.133652
-0.123738
-0.118827
-0.123919
-0.129013
-0.109111
-0.099211
-0.129314
-0.14442
-0.154529
-0.14464
-0.149755
-0.164872
-0.164992
-0.160114
-0.16024
-0.170368
-0.175498
-0.155632
-0.160768
-0.150906
-0.131048
-0.111192
-0.0863381
-0.0814871
-0.0666387
-0.0267929
0.0130505
0.00789131
0.0227297
0.0375656
0.047399
0.03223
0.0420587
0.0468849
0.0667087
0.0715302
0.0513494
0.0611663
0.0659808
0.0657931
0.0406031
0.0454109
0.0552165
0.0550199
0.0498212
0.0446202
0.0594172
0.054212
0.0440048
0.0387954
0.0435841
0.0533707
0.0431553
0.0279379
0.0377186
0.0474973
0.0372741
0.017049
0.0218221
0.0315932
0.0263626
0.00613018
0.010896
0.02066
0.0154223
0.000182846
-0.00505827
0.00469895
0.00945452
0.00420847
0.00396083
0.0187116
0.0134608
0.0232085
0.0179547
0.00769946
0.0124427
0.00218456
-0.00307502
0.011664
0.0064017
0.016138
0.0208731
0.0306068
0.0603393
0.0700705
0.0598005
0.0795294
0.089257
0.103984
0.113709
0.113433
0.123156
0.142879
0.1326
0.12232
0.127039
0.116757
0.121475
0.116191
0.135907
0.160621
0.175335
0.115048
0.0797605
0.079472
0.0541828
0.0288929
0.0136023
0.00331109
-0.00698079
-0.00727327
-0.0175663
0.00214003
-0.00315413
-0.0134488
-0.00874396
0.000960416
-0.00933564
-0.0246321
-0.024929
-0.0202262
-0.0205238
-0.0158217
-0.0261199
-0.0314183
-0.031717
-0.0570159
-0.107315
-0.132614
-0.167914
-0.213213
-0.168513
0.0161871
0.260887
0.540587
0.905288
1.21499
1.33469
1.12939
0.594088
0.0437888
-0.211511
-0.21181
-0.152109
-0.102408
-0.0727069
-0.0830054
-0.0933037
-0.0886017
-0.0838993
-0.0891967
-0.0944937
-0.11479
-0.105087
-0.110382
-0.105678
-0.115973
-0.111267
-0.0965612
-0.101855
-0.117148
-0.11744
-0.107732
-0.108023
-0.118314
-0.128603
-0.123893
-0.119181
-0.114469
-0.124756
-0.115043
-0.105329
-0.115613
-0.120898
-0.121181
-0.111463
-0.106745
-0.122026
-0.112305
-0.102584
-0.117862
-0.123139
-0.128415
-0.113691
-0.113965
-0.124238
-0.11951
-0.104781
-0.110051
-0.115319
-0.120587
-0.105854
-0.106119
-0.121384
-0.126647
-0.106909
-0.117169
-0.107429
-0.112687
-0.112944
-0.1082
-0.133455
-0.138708
-0.12896
-0.11921
-0.129459
-0.124707
-0.124954
-0.110199
-0.105442
-0.110685
-0.0859256
-0.056165
-0.0364029
-0.0366394
-0.0268744
-0.00210789
0.0126601
0.0174296
0.0122007
0.0319733
0.0517475
0.0465232
0.0413006
0.0460795
0.06586
0.0706422
0.0554259
0.0602114
0.0649984
0.0697872
0.0595776
0.0593697
0.0641635
0.063959
0.0587562
0.0485551
0.0683558
0.0531582
0.0479624
0.0427684
0.0425761
0.0423856
0.0371969
0.03201
0.0418249
0.0416417
0.0414602
0.0362806
0.0211029
0.020927
0.0357529
0.0105808
0.0254105
0.0252421
0.00507554
-0.0100891
-0.0102518
0.00958739
-0.000571504
-0.0107285
-0.0208835
-0.00103661
-0.0111878
-0.016337
-0.00648422
0.0183705
0.0482272
0.0430858
0.0579464
0.0728091
0.0926737
0.0875402
0.0824088
0.0972794
0.117152
0.122027
0.106903
0.0967819
0.101663
0.0915452
0.0964299
0.101317
0.111205
0.131096
0.145989
0.135884
0.095781
0.06568
0.0405811
0.00548418
-0.00461064
-0.0147034
-0.0297941
-0.0498827
-0.0299693
-0.0200538
-0.0301362
-0.0352166
-0.0352949
-0.0303711
-0.0254452
-0.0405173
-0.0355872
-0.0356551
-0.035721
-0.0557847
-0.0508464
-0.0359059
-0.0459634
-0.106019
-0.141072
-0.146123
-0.196173
-0.24622
-0.211265
-0.0513077
0.168651
0.443613
0.828576
1.15354
1.22351
0.858478
0.68845
-0.176577
-0.221601
-0.141623
-0.111643
-0.0966614
-0.0916774
-0.0966914
-0.0967033
-0.106713
-0.0967209
-0.0867267
-0.0967304
-0.0967321
-0.0867317
-0.0817293
-0.101725
-0.101718
-0.0967098
-0.0966992
-0.106687
-0.121672
-0.106655
-0.0916368
-0.101616
-0.106594
-0.106569
-0.0965422
-0.0965135
-0.101483
-0.0964502
-0.0914156
-0.096379
-0.0963404
-0.0962998
-0.0912573
-0.0912128
-0.0961664
-0.101118
-0.0960676
-0.0960153
-0.090961
-0.105905
-0.100847
-0.0857867
-0.0907247
-0.0906608
-0.080595
-0.0705273
-0.0804577
-0.0903862
-0.0903127
-0.0802375
-0.0851603
-0.0950812
-0.0950003
-0.0799175
-0.0798329
-0.0997464
-0.094658
-0.0895678
-0.0794758
-0.0893819
-0.0892862
-0.0691887
-0.0540894
-0.0539883
-0.0388853
-0.0187806
0.0013259
0.00643421
0.00654428
0.0316561
0.0317697
0.0318851
0.0320022
0.0471211
0.0522417
0.0423641
0.0374881
0.0426139
0.0477414
0.0428706
0.0330015
0.0331341
0.0532684
0.0434044
0.043542
0.0486813
0.0438223
0.0489649
0.0291091
0.024255
0.0344026
0.0445517
0.0347025
0.0248548
0.0300088
0.0301644
0.0203216
0.0104803
0.0106406
0.0108025
0.00596594
-0.00886907
-0.00870254
0.00146553
-0.00336487
-0.00819374
-0.0130211
-0.00784697
-0.00267133
-0.0174942
-0.0223156
-0.0171355
-0.0119539
-0.0267709
-0.0215864
-0.0164005
-0.0162132
-0.0210244
-0.0358342
-0.0156426
-0.0104496
-0.0152551
-0.0100593
-0.00486216
0.0103364
0.0255363
0.0207376
0.0309402
0.0511442
0.0613495
0.0515561
0.056764
0.0919733
0.107184
0.107396
0.107609
0.112823
0.103039
0.0782556
0.0884738
0.0986931
0.118914
0.129136
0.129359
0.114583
0.0698083
0.0500349
0.0352627
0.0104916
-0.00427828
-0.014047
-0.0188146
-0.0235811
-0.00834646
-0.0331107
-0.0378739
-0.0426359
-0.0373969
-0.0321568
-0.0319156
-0.0366734
-0.0314301
-0.0311858
-0.0409405
-0.0456942
-0.0304468
-0.0351985
-0.0649492
-0.129699
-0.159448
-0.189195
-0.223942
-0.218688
0.0865669
0.361823
0.76708
1.07234
1.1326
0.777856
0.133116
-0.226623
-0.231361
-0.126098
-0.0958343
-0.10557
-0.100304
-0.0800384
-0.0897715
-0.0945039
-0.114235
-0.0939664
-0.0936965
-0.103426
-0.123155
-0.107883
-0.10261
-0.0973366
-0.102063
-0.101788
-0.0965126
-0.101237
-0.10596
-0.105683
-0.0954051
-0.0951268
-0.104848
-0.109568
-0.0842884
-0.0840078
-0.0987267
-0.113445
-0.0981631
-0.0928805
-0.0975975
-0.112314
-0.10203
-0.0867457
-0.101461
-0.106176
-0.10089
-0.0906041
-0.0853177
-0.090031
-0.0847439
-0.0744565
-0.0791688
-0.0838808
-0.0835925
-0.0833039
-0.088015
-0.102726
-0.0974366
-0.102147
-0.0868572
-0.0865672
-0.0762771
-0.0659867
-0.0706963
-0.0804056
-0.0801149
-0.064824
-0.044533
-0.044242
-0.0239508
0.00634034
0.0166316
0.0269228
0.0222141
0.0325054
0.0427966
0.0480878
0.048379
0.0536701
0.0639612
0.0642521
0.054543
0.0598337
0.0801243
0.0754148
0.0457051
0.0459952
0.0612851
0.0615748
0.0468643
0.0421535
0.0524425
0.0627312
0.0530196
0.0433077
0.0585955
0.058883
0.0391701
0.0294568
0.0397432
0.0350292
0.0403147
0.0155998
0.0108845
0.0111687
0.0264525
0.0117357
0.0120185
0.00730068
0.00758235
-0.0121365
-0.016856
-0.00657607
-0.00129673
-0.016018
-0.02574
-0.00546254
0.00481419
0.0000902
-0.0196344
-0.0143598
0.00591407
-0.00881282
-0.0135405
-0.00326892
0.00700182
0.00727174
0.00254082
0.017809
0.0330764
0.0433428
0.0386084
0.043873
0.0791367
0.0793994
0.0746611
0.0899219
0.100182
0.11544
0.115698
0.105955
0.10621
0.116465
0.111718
0.11197
0.127221
0.142471
0.15772
0.147967
0.0632135
0.0484585
0.0337023
0.0189449
0.0141861
0.00942609
-0.00533527
-0.015098
-0.019862
-0.00962739
-0.0193942
-0.0291624
-0.033932
-0.013703
-0.0134755
-0.0382494
-0.0430249
-0.0428018
-0.0225802
-0.0323602
-0.0271418
-0.0369249
-0.0717095
-0.121496
-0.141284
-0.186073
-0.225864
-0.160657
-0.000451724
0.229752
0.594954
0.985155
1.17035
1.12055
0.675745
0.145938
-0.14887
-0.23368
-0.193493
-0.113307
-0.0931225
-0.10794
-0.09276
-0.0775815
-0.087405
-0.0972305
-0.0920579
-0.0718872
-0.0867186
-0.0965519
-0.101387
-0.0962247
-0.0910641
-0.100906
-0.100749
-0.0955948
-0.110443
-0.115292
-0.120144
-0.0999985
-0.0898548
-0.104713
-0.124574
-0.114437
-0.0993016
-0.0991689
-0.0990383
-0.10391
-0.118784
-0.11866
-0.118539
-0.0884194
-0.0733025
-0.0831878
-0.0880755
-0.0979656
-0.092858
-0.102753
-0.10765
-0.102549
-0.0974512
-0.102355
-0.117262
-0.117171
-0.0970827
-0.0969967
-0.116913
-0.131832
-0.116753
-0.121677
-0.126603
-0.126532
-0.131464
-0.131397
-0.141334
-0.151272
-0.151214
-0.111158
-0.101104
-0.0910532
-0.0760048
-0.055959
-0.0409157
-0.040875
-0.00583687
-0.000801353
0.0142316
0.00926188
0.0192896
0.0493147
0.0593371
0.044357
0.0643742
0.0693888
0.0644007
0.05441
0.0444167
0.0544207
0.0544221
0.0544208
0.0494168
0.0544102
0.0744009
0.069389
0.0593744
0.0443571
0.0393372
0.0443146
0.0192893
0.0342613
0.0342307
0.0291974
0.0141615
0.00412282
0.0240815
0.0240375
0.0239909
0.0139416
0.0288896
0.018835
0.0187777
0.0037177
-0.00134492
-0.0114102
-0.00647811
-0.0315487
-0.0216219
-0.0166977
-0.0117762
-0.0168574
-0.0169411
-0.0120275
-0.00711647
-0.0272081
-0.0223023
-0.00739908
-0.00249848
-0.0176005
-0.022705
-0.00781218
0.00707812
-0.00303415
-0.00814897
0.0117337
0.0266138
0.0214914
0.0163664
0.036239
0.066109
0.0709766
0.0558417
0.0857043
0.0955645
0.0854222
0.0852775
0.0951303
0.114981
0.114829
0.109674
0.109518
0.119359
0.104197
0.0940334
0.0938673
0.108699
0.133528
0.133355
0.11818
0.0830023
0.0578225
0.0326405
0.00745634
0.00226995
-0.00291862
-0.0181093
-0.0233022
-0.0184972
-0.0136943
-0.0288935
-0.0340948
-0.0442981
-0.0345035
-0.0347109
-0.0449203
-0.0451316
-0.0303449
-0.0205602
-0.0457774
-0.0509965
-0.0662175
-0.10644
-0.156665
-0.211892
-0.22712
-0.10235
0.0874183
0.342185
0.686949
1.05671
1.27647
1.28623
1.01599
0.540748
0.100503
-0.0147435
-0.254992
-0.260241
-0.210492
-0.150745
-0.120999
-0.111254
-0.106511
-0.116769
-0.127029
-0.107289
-0.112551
-0.117815
-0.128079
-0.118345
-0.103612
-0.11888
-0.124149
-0.119419
-0.10469
-0.114962
-0.130235
-0.11551
-0.105785
-0.106061
-0.111338
-0.121615
-0.116894
-0.117173
-0.127453
-0.127734
-0.118016
-0.138298
-0.133581
-0.128864
-0.109148
-0.124433
-0.124718
-0.130004
-0.10529
-0.100576
-0.120863
-0.14115
-0.126438
-0.116726
-0.127014
-0.137302
-0.12759
-0.127879