1.2458	1.1456	1.2438	-0.38047	-0.24652	0.20925	0.1149	0.075861	0.038846	-0.022298	-7.3374e-06
2.2212	1.7602	0.57139	0.085538	-0.03175	-0.33317	-0.018419	-0.11286	-0.044936	0.012342	-0.0061356
2.4892	1.6845	0.60245	-0.078655	-0.19245	0.10249	-0.041121	-0.023925	0.013723	-0.0046216	0.0016711
1.8771	1.951	0.87242	0.038293	-0.27693	0.12015	0.041421	-0.045231	0.090673	-0.011011	0.0050555
2.7821	0.61047	-0.62732	1.0061	-0.096972	-0.80655	0.017926	-0.17727	0.18924	-0.016716	-0.0018277
2.2045	1.3828	0.94162	-0.7799	-0.39747	0.32492	0.12221	0.08278	0.019038	-0.018289	0.0016482
3.297	1.9808	1.2402	-0.62825	-0.38852	0.031193	-0.032787	-0.035384	-0.034937	0.0042559	4.7785e-05
2.9834	1.7161	0.72792	-0.72652	-0.60647	0.18184	0.068691	-0.089662	-0.013461	0.0073032	0.0035326
2.28	1.7314	0.92113	0.17274	-0.17909	-0.17505	0.011616	-0.023143	-0.020171	0.0019649	-0.0024341
3.3909	-2.7344	0.61887	-2.0687	0.12655	-0.72844	-0.12214	0.50769	-0.019407	0.034036	0.0078953
3.6694	-2.2914	0.4768	-0.98052	-1.1504	0.50169	0.57078	0.12732	0.036579	-0.10659	-0.014576
2.7383	1.8105	1.2889	-0.48291	0.035438	-0.31912	-0.08389	-0.16697	0.037419	0.0052505	-0.004001
2.0754	1.3272	0.92859	-0.42195	0.1325	0.090912	0.011814	0.040765	0.035006	-0.0079338	-1.7407e-05
2.8612	1.5655	1.6794	-0.59591	0.034295	-0.28538	-0.084231	-0.064603	0.038373	0.00077605	-0.002841
1.336	1.7659	0.72968	-0.0012814	0.15433	0.06288	-0.013049	-0.02897	0.04378	-0.0067709	0.00016726
1.7049	2.0093	1.2859	-0.31499	-0.089738	0.24057	0.042103	0.030237	-0.0041735	-0.0073733	5.2874e-05
1.9877	1.7615	1.3044	-0.27978	0.39999	-0.081644	-0.11666	0.029529	0.053787	-0.007516	-0.001185
1.3753	0.69233	0.45864	-0.0037633	0.74818	-0.69585	-0.17279	-0.053469	-0.00094107	0.043577	-0.0010182
1.3121	1.1905	1.4499	-0.41549	0.45922	-0.15022	-0.055494	0.019022	0.023304	0.01219	-6.4685e-05
0.40449	0.79153	0.52048	-0.046998	0.32695	-0.10947	-0.024117	0.051313	-0.011583	0.011205	-0.00019945
0.50585	0.84546	0.7202	-0.29802	-0.060183	0.05749	0.099866	0.035681	0.016522	-0.009295	-0.0018731
2.1414	1.0239	1.2817	-0.6744	0.070147	-0.082778	0.017612	-0.022499	-0.041565	0.0074368	-0.004516
3.8779	-2.2568	0.40405	-0.1906	0.44013	-0.24446	0.16802	-0.040789	0.097953	0.054704	0.018933
1.0552	0.57044	0.45529	-0.64953	0.20243	-0.1063	0.027335	-0.003534	-0.015855	0.012446	-0.0025088
-0.20083	0.49698	0.74182	-0.17735	0.07693	-0.11153	0.049592	-0.070287	-0.031278	0.011799	-0.0034551
-1.335	0.51658	0.16046	0.05167	-0.42426	0.37379	0.19027	0.0094003	0.024146	-0.039337	-0.004519
-0.024246	0.56493	0.61318	-0.12202	0.084072	-0.019038	0.039524	0.05257	-0.020556	0.0028676	0.00052902
-1.1976	0.13539	-0.061782	0.23037	0.49368	-0.023805	-0.034615	0.068666	-0.0016769	0.024486	0.005277
0.61963	-0.74161	0.22603	-1.0527	-0.46782	0.059344	0.21939	-0.069587	0.014733	-0.049102	-0.014968
-0.4882	0.65674	0.63595	-0.20623	-0.48244	0.37029	0.20675	0.055284	0.039375	-0.046933	-0.0049663
-0.90855	0.54531	0.62015	0.15219	0.22924	0.13759	0.034594	0.069437	0.025286	-0.003336	0.0020951
-1.0828	0.64407	0.24226	0.12672	-0.19222	0.25291	0.13201	0.03607	0.024461	-0.021523	-0.0011562
-1.2668	0.35225	0.16773	0.070936	0.007322	0.24143	0.091917	0.027252	0.048757	-0.019634	-0.0001023
-1.3449	0.36343	0.53681	0.032044	-0.17471	0.20106	0.10131	0.050245	0.017941	-0.028776	-0.0040127
-1.7558	0.2615	0.10139	0.24848	-0.17638	0.18938	0.10337	0.00027511	0.011761	-0.023025	-0.0029215
2.0767	-2.4722	-1.5305	-1.1408	-0.062316	0.34601	0.32141	-0.30145	0.12376	-0.017127	0.00068736
-1.7081	-1.7435	0.74427	-0.84868	-0.058946	0.1145	-0.016952	-0.025571	-0.0060001	-0.052424	-0.015063
-0.012435	-1.5956	0.36023	-0.98324	-0.25129	0.10472	0.16289	0.0033788	0.048557	-0.055679	-0.012311
-1.6066	-0.81402	0.31852	-0.16912	-0.089304	0.0077867	0.011919	-0.01864	0.034069	-0.022121	-0.0038351
-0.049097	-0.71299	0.23825	-0.71345	-0.37489	-0.095449	0.14166	-0.15611	0.046438	-0.031403	-0.0099442
-0.27824	-0.7253	0.58961	-0.46924	-0.22997	0.23132	0.18862	-0.076572	0.037185	-0.043603	-0.0089072
0.51812	-1.9081	0.74512	-1.0681	0.28007	-0.25402	-0.015756	0.16084	0.05582	0.027328	0.0092676
-0.60859	0.079722	0.66071	-0.36184	-0.80682	-0.0005871	0.21453	-0.15537	0.06674	-0.066082	-0.014105
-1.7981	0.18664	0.12948	0.1411	-0.096671	0.28369	0.092863	0.020168	0.025839	-0.026879	-0.0025841
0.094575	0.018533	0.10151	-0.2399	-0.12206	-0.37696	0.048549	-0.11297	-0.084078	0.026395	-0.0058771
-0.11124	0.10782	0.58998	-0.54108	-0.30821	0.021184	0.13788	-0.053064	0.051847	-0.031625	-0.0072279
-1.2371	0.16015	-0.24404	0.15205	0.32408	-0.067622	-0.019173	0.082251	0.00092284	0.017295	0.0034098
-1.5763	0.3689	0.13802	0.41131	0.26467	-0.16119	-0.036182	0.020169	-0.014449	0.020006	0.0018797
-0.071031	-0.32337	0.59088	-0.65753	-0.56772	-0.46343	0.10353	-0.14715	0.076847	-0.029995	-0.011189
-1.7259	0.40164	0.14699	0.50001	0.20555	0.047177	0.020636	0.04687	0.032737	0.0029144	0.0035978
-0.51879	0.37378	0.55952	-0.27856	-0.28753	0.061058	0.11731	-0.057524	0.02696	-0.022682	-0.0054789
-0.20154	0.89367	0.83811	-0.41871	-0.76645	0.46544	0.25705	0.04632	0.034712	-0.056608	-0.0062458
-0.88752	-0.53348	-0.22099	0.074214	-0.21836	-0.27972	0.052933	-0.092369	-0.028168	0.010716	-0.0030649
-1.3759	0.42311	0.12378	0.15746	-0.21457	0.1761	0.1068	0.0772	0.0094728	-0.021471	-0.0017189
-1.8616	0.30375	-0.4672	0.576	0.37906	0.02688	0.0044065	0.018625	0.043057	0.013149	0.0054657
-1.761	0.30542	-0.039442	0.29554	0.165	0.18631	0.049772	0.0061851	0.016891	-0.0033378	0.0010765
-1.5051	0.3178	0.16601	0.24426	0.047829	0.033807	0.030068	0.079825	0.022271	-0.0056833	0.0010233
-1.6408	0.31471	-0.34152	0.27331	-0.0060325	0.21314	0.093206	0.06151	-0.0067427	-0.0093047	-0.00028761
-1.8082	0.093524	-0.18559	0.41664	0.15944	-0.064034	-0.0077815	0.029974	0.032962	0.0073932	0.0034966
-1.8794	0.1387	0.0036418	0.3392	0.43866	0.073527	-0.036792	0.067742	0.0049964	0.016777	0.005244
-1.255	0.183	0.26265	0.17144	0.30555	-0.092041	-0.016333	-0.032903	-0.0034304	0.021314	0.0032346
-1.8497	-3.1028	1.619	-1.1805	-0.21691	-0.21754	-0.051093	-0.025843	-0.10418	-0.064977	-0.027249
1.2022	-1.6201	0.39776	-1.0352	-0.16322	-0.065536	0.23466	-0.07024	0.0909	-0.023874	-0.004161
0.54578	-1.3926	0.25427	-1.5112	-0.38153	0.0099484	0.21227	-0.13134	0.0073132	-0.060293	-0.021483
-0.65646	-0.35969	-0.10845	-0.10327	-0.19735	-0.28863	0.046016	-0.096603	0.020165	0.0044878	-0.00088751
-1.7391	-1.0838	-0.73834	-0.16766	-0.31006	-0.7181	-0.12335	-0.22838	0.062887	0.019018	0.0006768
0.14823	-2.1087	-0.13911	-1.7513	-0.26088	0.11113	0.12497	0.040837	-0.016011	-0.069602	-0.020799
-0.17634	-0.57101	0.038557	-0.63988	-0.18854	-0.080574	0.10305	-0.13563	0.044017	-0.015464	-0.0057474
-2.1494	-0.016073	0.088397	0.19503	-0.091473	0.24886	0.060895	0.031915	0.024009	-0.029665	-0.0031907
-2.0792	-0.023603	-0.076232	0.32752	0.11071	0.071472	0.0024935	0.033447	0.029822	-0.0033549	0.002026
-1.8823	0.11521	0.3393	0.34841	0.23425	0.031543	-0.012497	0.0015465	0.032607	0.005979	0.0033605
-1.5883	0.16468	0.25751	0.1489	0.14904	0.15798	0.04281	-0.0010717	0.028281	-0.0064507	0.00062469
-1.9568	-0.043754	0.13896	0.31113	0.41693	0.035834	-0.057522	0.063001	0.0081681	0.01846	0.0056231
-2.2766	-0.0028581	0.12838	0.35891	0.14998	0.10913	-0.0092406	0.02682	0.028092	-0.0042047	0.0020595
-2.4352	-0.25063	-0.082888	0.38549	0.1828	0.16889	-0.017646	0.016997	0.028561	-0.0036178	0.0029483
-2.5577	-0.37948	0.076006	0.3463	0.188	0.15567	-0.04403	0.026622	0.0112	-0.0022288	0.0023629
-2.649	-0.36325	0.16265	0.34752	0.20597	0.15977	-0.049912	-0.023123	0.029593	-0.0027362	0.0025498
-2.5431	-0.3577	0.31958	0.23489	0.075083	0.20961	-0.020623	0.024402	0.02007	-0.019927	-0.001157
-2.6709	-0.33789	0.17125	0.34002	0.22041	0.174	-0.052702	-0.010301	0.041661	-0.0048308	0.0031542
-2.6875	-0.45442	0.23765	0.33907	0.22034	0.18727	-0.056529	-0.022705	0.038261	-0.0047378	0.0030895
-2.6792	-0.52204	0.24823	0.32161	0.20158	0.16463	-0.068955	0.032507	0.033038	-0.0059219	0.0033274
-2.6815	-0.46652	0.21461	0.29677	0.20654	0.14448	-0.066063	-0.031768	0.04362	-0.0039964	0.0029367
-2.4605	-0.42615	0.24238	0.18335	0.094325	0.24691	-0.01333	0.019615	0.018943	-0.020127	-0.0012231
-2.6953	-0.47647	0.25188	0.33342	0.21848	0.18687	-0.061548	0.0069174	0.028358	-0.0047642	0.0030632
-2.804	-0.56	0.35821	0.25005	0.25359	0.20072	-0.086466	0.01792	0.023295	-0.0048911	0.0027573
-2.7481	-0.54476	0.30339	0.26915	0.23264	0.17479	-0.075302	-0.041745	0.041601	-0.0042659	0.0028776
-2.8344	-0.56847	0.41242	0.2992	0.20138	0.12226	-0.093843	-0.0149	0.043042	-0.0049032	0.0031137
-2.7778	-0.47032	0.33863	0.35209	0.18792	0.12288	-0.07938	0.0091615	0.042279	-0.0055085	0.0033417
-2.4783	-0.60181	0.18677	0.2132	0.30107	0.049302	-0.099733	0.017961	0.010606	0.014356	0.0052389
-2.7568	-0.70399	0.35813	0.2275	0.20941	0.14508	-0.098656	0.026022	0.035491	-0.0059735	0.0032434
-2.8026	-0.59136	0.40452	0.32938	0.18926	0.12569	-0.08811	-0.012172	0.050843	-0.0062016	0.0035291
-2.8903	-0.63078	0.48799	0.28125	0.22238	0.1508	-0.10212	-0.00202	0.032838	-0.0049816	0.0029192
-2.6847	-0.59258	0.45055	0.33973	0.28684	0.037251	-0.11132	-0.0059925	0.037239	0.011999	0.0065506
-2.8862	-0.64173	0.48064	0.26653	0.21527	0.13279	-0.1047	-0.012111	0.028751	-0.0037235	0.00259
-2.8111	-0.69177	0.39431	0.19707	0.23632	0.16149	-0.10268	-0.002614	0.034278	-0.0049435	0.002884
-2.8674	-0.65954	0.4717	0.27236	0.20578	0.12497	-0.10409	-0.014378	0.038472	-0.0047163	0.0029468
-2.8463	-0.66569	0.45998	0.28791	0.19487	0.11978	-0.10096	-0.0066514	0.029764	-0.0039642	0.0027818
-2.8323	-0.80085	0.44184	0.1573	0.22779	0.13943	-0.11459	-0.015637	0.01758	-0.0023191	0.0020842
-0.013507	-3.0878	-1.0818	-0.73775	0.35528	0.30473	0.05954	-0.29281	0.10365	0.034633	0.015818
0.018183	-2.7086	-0.24342	-2.0404	-0.18494	-0.10592	-0.01475	0.32992	-0.031269	-0.057983	-0.016939
0.66615	-1.448	0.36178	-1.7337	-0.50968	0.023174	0.21887	-0.0079799	0.016	-0.084768	-0.025541
-0.35244	-1.0633	-0.053613	-0.2406	0.22338	-0.62701	-0.10511	0.054978	-0.057162	0.065346	0.0073151
1.2553	-1.0367	0.40363	-1.8659	-0.56138	0.28628	0.31015	-0.036316	0.014834	-0.094147	-0.026249
-1.1946	-0.51219	0.19455	-0.35084	-0.080713	0.011313	0.033748	0.041308	-0.033354	-0.01327	-0.0058635
-1.6561	-0.31345	0.53462	-0.10994	-0.12645	0.20525	0.068117	-0.0084153	0.030635	-0.036594	-0.0061405
-1.9966	-0.43455	0.20872	0.08693	-0.070089	0.022492	-0.0015312	-0.0053065	0.023634	-0.016286	-0.0019152
-2.2731	-0.62696	0.27923	0.15993	0.12929	0.069185	-0.046862	-0.007605	0.011403	-0.0021379	0.0015605
-2.1269	-0.54753	0.21556	0.073038	-0.17423	0.11253	0.021667	-0.016511	0.025697	-0.032649	-0.0055813
-1.7514	-0.52982	0.55546	-0.092069	0.12108	0.0561	-0.018125	0.027608	0.046803	-0.010747	0.0010512
-1.1398	-2.9251	0.25932	-1.2608	-0.35826	-0.85384	-0.23508	0.1971	-0.021983	0.0042674	-0.0048653
-1.3361	-0.11778	0.29289	-0.14565	-0.047442	0.077615	0.049102	-0.017649	0.040078	-0.018473	-0.0026691
-1.787	-0.27135	0.26725	0.086618	0.24427	0.0098001	-0.040416	0.043183	0.014894	0.0084085	0.0037712
0.41812	-0.44148	0.95104	-1.0438	-0.70775	0.17886	0.26921	-0.0010694	-0.021024	-0.080592	-0.020458
-1.81	-0.43154	-0.20386	0.2746	0.4397	-0.15709	-0.092288	0.039432	-0.069907	0.048596	0.008787
-2.5087	-0.55074	0.0043448	0.14602	0.22633	0.1631	-0.06465	0.010668	0.016561	-0.0019081	0.0022864
-1.9659	-0.63691	0.071058	0.014462	0.25145	-0.008556	-0.07047	0.013012	0.0038766	0.014526	0.0035372
-2.0369	-0.55735	0.62525	0.088328	0.27628	0.059563	-0.062382	0.054268	0.019255	0.0071939	0.0043204
-1.6133	-1.3475	0.54008	0.8017	0.11736	0.028197	0.028433	-0.044586	-0.053998	0.035283	0.0094139
-2.6335	-0.91864	0.50283	-0.051647	0.10117	0.17253	-0.082105	-0.016228	0.022083	-0.02308	-0.0030878
-2.8106	-1.0606	0.44597	-0.017141	0.23635	0.11575	-0.14367	-0.027054	0.014352	-0.0011267	0.0017544
-2.9844	-1.0595	0.67946	0.10915	0.20082	0.074438	-0.15711	-0.038512	0.031578	-0.0030167	0.0023642
-2.8567	-1.196	0.73502	0.05621	0.26363	-0.07615	-0.19564	-0.04036	0.034577	0.019027	0.006902
-2.2853	-1.0995	0.31931	-0.18356	0.18814	0.07009	-0.092037	-0.072027	0.024453	-0.0013618	0.00041623
-1.9581	-0.9873	0.8388	-0.26788	0.088125	-0.069721	-0.071585	0.0068645	0.023039	-0.0066249	-0.0013614
-2.3644	-0.94308	0.60532	0.048093	0.29064	0.042935	-0.10742	0.0072873	0.0058904	0.014881	0.005101
-2.3475	-1.0098	0.77936	-0.22823	-0.26906	0.087063	-0.0090101	-0.082129	0.031162	-0.062616	-0.015016
-1.1467	-2.3144	-0.014403	-1.3958	-0.30223	-0.090393	-0.038903	0.006178	0.0031819	-0.072486	-0.021685
-1.0617	-1.3962	0.34779	-0.9786	-0.75087	-0.21459	0.10143	-0.16257	0.014959	-0.09727	-0.030395
-2.2598	-0.89074	0.6368	-0.25819	-0.24462	0.13668	0.0015803	-0.025227	-0.015642	-0.054481	-0.014764
-2.7242	-0.82841	0.32663	0.12149	0.21473	0.1326	-0.11328	0.039542	0.018431	-0.0040507	0.0025426
-2.9347	-0.82573	0.57355	0.19686	0.21166	0.11341	-0.13112	0.0032143	0.037743	-0.0054816	0.0030605
-2.8658	-0.66395	0.46743	0.2642	0.20147	0.11414	-0.10522	-0.019969	0.030701	-0.003343	0.0025554
-2.7589	-0.68722	0.33005	0.18369	0.19813	0.10268	-0.10852	0.0361	0.020073	-0.0033804	0.0024687
-2.7022	-0.60212	0.5233	0.115	0.12179	0.23196	-0.057311	0.018457	0.029059	-0.024452	-0.0018316
-0.8857	-2.2176	-0.49434	-1.4845	0.072421	-0.016366	-0.049369	-0.19478	0.10039	-0.027693	-0.0072736
-0.61202	-1.8153	-0.8439	-1.0254	0.13317	-0.24913	-0.062824	-0.15575	-0.017142	0.031247	-5.1743e-05
-2.7438	-0.51957	0.27418	0.24264	0.2227	0.14458	-0.082619	-0.016189	0.031717	-0.0032063	0.0025503
-2.7033	-0.62242	0.25956	0.21345	0.17867	0.08259	-0.09698	0.023711	0.01947	-0.0022402	0.0022653
-2.7667	-0.57635	0.31658	0.23219	0.22531	0.15361	-0.091959	0.027429	0.02426	-0.0044082	0.0028897
-2.8188	-0.47358	0.37001	0.32664	0.2073	0.13295	-0.082136	-0.025513	0.041496	-0.0042409	0.002929
-2.4725	-0.37913	0.41425	0.23712	0.14218	0.045112	-0.058559	-0.022583	0.044607	-0.0046558	0.0020124
-2.7827	-0.47507	0.32589	0.31505	0.17725	0.085189	-0.085021	-0.0082958	0.011709	-0.00030369	0.0018047
-2.7177	-0.6378	0.30448	0.25837	0.19693	0.13334	-0.084086	-0.0028628	0.0091836	-0.0013707	0.0020221
-2.6777	-0.55784	0.20154	0.20235	0.19016	0.088825	-0.087984	-0.009729	0.022488	-0.0010973	0.0020934
-2.7661	-0.5957	0.31704	0.21862	0.22028	0.13918	-0.093407	0.0059172	0.019102	-0.002656	0.0022584
-2.7193	-0.6209	0.3066	0.27243	0.20429	0.15177	-0.083071	0.018043	0.025622	-0.0044846	0.0029262
-2.7944	-0.59743	0.36208	0.2462	0.24602	0.18987	-0.085703	-0.01318	0.027077	-0.0040871	0.0026403
-2.6132	-0.54045	0.42816	0.16011	0.081706	0.1952	-0.043756	0.022342	0.0087619	-0.020571	-0.0019403
-2.7659	-0.60718	0.33333	0.25049	0.1671	0.059881	-0.10214	-0.0045707	0.046677	-0.0042784	0.003092
-2.815	-0.58182	0.38994	0.28398	0.18633	0.094355	-0.098308	-0.013278	0.052144	-0.0054302	0.0033205
-2.905	-0.61963	0.48724	0.25942	0.22578	0.14149	-0.10647	-0.003492	0.027444	-0.0039576	0.0025892
-2.8947	-0.63033	0.48801	0.2727	0.22339	0.14712	-0.10397	-0.0045841	0.035312	-0.0050579	0.0029277
-2.9003	-0.60551	0.51364	0.34477	0.16104	0.067768	-0.10953	0.014481	0.047317	-0.0060229	0.0034713
-2.7934	-0.59484	0.61125	0.11234	0.13646	0.22899	-0.062559	-0.043722	0.034119	-0.022788	-0.0022715
-2.867	-0.54566	0.44491	0.31484	0.22534	0.16187	-0.089187	-0.015758	0.035885	-0.0048303	0.002952
-2.8873	-0.63743	0.49086	0.28737	0.22197	0.15421	-0.10056	-0.0061494	0.033985	-0.0051093	0.0030379
-2.8501	-0.66514	0.46308	0.28645	0.1979	0.12321	-0.10155	-0.0072699	0.03667	-0.004823	0.0030366
-2.7801	-0.65154	0.54016	0.2731	0.31962	0.05269	-0.12723	-0.020921	0.024464	0.0145	0.0061828
0.41473	-3.0221	0.10784	-2.5575	-0.075838	-0.05523	0.064719	0.24639	-0.137	-0.054648	-0.026685
-1.4324	-1.9722	-0.21253	-0.88699	0.37295	-0.19305	-0.17389	-0.088343	0.088748	0.03998	0.012306
-0.73845	-2.1965	0.13265	-1.4532	-0.091692	0.059865	0.016904	0.022875	-0.023063	-0.049761	-0.016857
-1.5005	-1.2554	0.31886	-0.56862	-0.48204	-0.23714	0.023198	-0.17224	0.023669	-0.05305	-0.018135
-1.3537	-2.2823	0.88473	-1.1299	-0.30959	-0.31103	-0.049867	0.065881	-0.031309	-0.054179	-0.019689
-2.2598	-1.2999	0.44298	-0.33668	-0.19633	-0.065072	-0.071916	-0.056154	-0.025407	-0.034438	-0.012318
-1.4402	-1.3118	0.59491	-0.57917	-0.2087	-0.29484	-0.040908	-0.037397	-0.004108	-0.017612	-0.0093452
0.081279	-1.4027	0.42033	-1.4633	-0.52995	0.2432	0.24503	-0.074066	0.058271	-0.11146	-0.028322
-1.2089	-1.2272	0.29447	-0.69462	-0.018382	0.024508	0.017698	-0.05977	-0.0031748	-0.020548	-0.0083752
-2.9527	-0.7259	0.54738	0.19169	0.22984	0.11997	-0.1244	-0.03003	0.029076	-0.0028943	0.0022814
-1.0263	-1.0442	0.64791	-0.71861	-0.40339	-0.055805	0.088736	-0.056896	-0.0081531	-0.056098	-0.018401
-1.6789	-1.2443	0.18564	-0.59024	-0.17679	-0.036579	-0.0098654	-0.13202	0.017411	-0.036242	-0.012336
-2.6413	-0.65164	0.18538	0.15675	0.21738	0.13696	-0.087269	-0.011086	0.041068	-0.0042103	0.0028589
-0.85392	-1.5589	0.25278	-0.96101	-0.25965	-0.090278	0.022517	0.066651	-0.028375	-0.039971	-0.013913
-1.5406	-0.68233	0.50374	-0.20355	-0.2356	0.045326	0.042874	0.058882	0.0025435	-0.037416	-0.0082783
-1.5208	-1.0137	0.53469	-0.33064	-0.35944	-0.19943	0.016003	-0.050628	-0.092638	-0.021637	-0.014817
-1.1928	-0.96557	0.36363	-0.28947	-0.26337	-0.24074	0.032658	-0.066548	-0.091906	-0.0039835	-0.01093
-1.4304	-1.9835	-1.0995	-1.1476	0.25008	0.0082571	-0.12687	-0.27023	0.058236	0.0094942	0.0021379
-1.0121	-1.0134	0.47148	-0.64543	-0.83875	-0.52235	0.069968	-0.1903	0.079419	-0.069718	-0.020719
-2.7184	-0.6428	0.28956	0.2242	0.18862	0.10203	-0.091362	-0.010554	0.0080146	-0.00016382	0.0017144
-1.0563	-1.7894	0.11815	-1.1916	0.057985	0.047457	-0.038162	0.10507	0.01362	-0.031272	-0.0074041
-1.0393	-0.97499	0.39732	-0.27439	-0.083475	-0.16639	0.01504	-0.012909	0.0075849	-0.0031491	-0.0020754
-1.1962	-1.1701	0.085189	-0.42036	-0.095941	-0.26789	-0.042115	0.0067033	-0.032405	0.0058657	-0.0035275
-1.3505	-0.54933	0.85326	-0.30607	-0.056668	0.046296	0.032357	0.035957	0.029039	-0.027197	-0.0051546
-1.0695	-1.2094	0.27026	-0.7442	-0.35047	0.016143	0.094017	-0.13887	-0.0059741	-0.0545	-0.018645
-1.2548	-0.89884	0.69277	-0.32485	-0.42984	-0.27801	0.045272	-0.074563	-0.040469	-0.027828	-0.013912
-0.13202	-0.96671	0.73807	-0.93951	-0.24625	0.03003	0.16108	-0.070435	0.0021314	-0.043411	-0.014347
0.97383	-3.8794	-0.65857	-1.5827	-0.50623	0.20767	0.17214	0.38596	-0.016475	-0.09911	-0.017875
-1.63	-1.33	-0.081057	-0.48697	-0.080315	-0.062435	-0.051864	0.019305	-0.018618	-0.014894	-0.0057565
-2.6334	-1.072	0.29864	0.048404	0.14779	0.02958	-0.12737	-0.026882	0.019807	-0.00026623	0.0020841
-1.9381	-1.0776	0.73458	-0.1737	-0.16701	-0.1693	-0.044931	-0.015708	-0.033561	-0.015364	-0.0078917
-1.1674	-0.97778	0.81703	-0.59024	-0.35625	0.035318	0.10459	-0.068215	0.068136	-0.069816	-0.016086
-2.5025	-0.92149	0.061652	-0.044581	0.20947	0.10016	-0.10663	-0.0088569	0.013264	-4.7947e-05	0.0017918
-2.5342	-1.1963	0.15191	-0.16449	0.20496	0.063604	-0.13591	-0.070871	0.043571	-0.0011004	0.0020855
-2.9678	-1.4453	0.73737	-0.075808	0.2028	0.051325	-0.19393	-0.058802	0.048415	-0.004329	0.0026841
-3.1074	-1.3018	0.85225	-0.0047258	0.22379	0.075056	-0.19687	-0.020699	0.031679	-0.0043043	0.002433
-2.8564	-1.1271	0.81616	-0.033222	0.051794	0.070329	-0.12597	-0.040937	0.038353	-0.025894	-0.0035057
-2.3625	-1.3993	0.74518	-0.33627	0.046204	0.063983	-0.090191	-0.046974	0.010362	-0.025705	-0.0065294
-2.271	-1.5334	0.92482	-0.50969	-0.092907	0.060075	-0.069032	-0.017095	0.032084	-0.054728	-0.012206
-2.8428	-1.255	0.82682	-0.090369	0.040678	0.044429	-0.1383	-0.042377	0.037283	-0.026146	-0.0038241
-2.7265	-1.4336	0.987	-0.3114	0.015428	0.22974	-0.088357	-0.042057	-0.0029352	-0.050688	-0.012204
-3.1167	-1.6203	0.91415	-0.17867	0.24455	0.080251	-0.23301	0.0069914	0.033541	-0.0060216	0.0026917
-2.4739	-1.3829	1.0373	-0.27659	0.20452	0.068325	-0.12414	-0.00011353	0.037603	-0.010477	0.00029338
-2.9018	-1.3323	0.62839	-0.07205	0.25189	0.14259	-0.16965	-0.015559	0.0066084	-0.0021588	0.0017747
-2.9463	-1.1682	0.6504	0.027428	0.2336	0.1233	-0.1641	0.003418	0.034467	-0.0057761	0.0029312
-2.8351	-1.1622	0.79822	-0.067342	0.11361	0.17218	-0.11226	-0.057023	0.027899	-0.02587	-0.003844
-2.8759	-1.5001	0.90891	-0.20301	0.081865	0.085991	-0.15514	-0.070144	0.055141	-0.030589	-0.0038442
-2.8119	-1.2942	0.79145	-0.13504	0.070892	0.08626	-0.13087	-0.060104	0.016127	-0.024341	-0.0048547
-3.1367	-1.5476	0.91454	-0.15916	0.26978	0.11186	-0.21896	-0.053779	0.028269	-0.0035526	0.001993
-2.8667	-1.2726	0.54962	-0.10494	0.23315	0.087174	-0.17219	-0.045896	0.029158	-0.002128	0.0020372
-3.0203	-1.2362	0.7409	0.011033	0.18046	0.01514	-0.19037	-0.011054	0.026974	-0.0027009	0.0024635
-3.0404	-1.3317	0.77523	-0.055322	0.25218	0.12297	-0.18999	-2.8458e-05	0.016733	-0.0039144	0.0021324
-2.9021	-1.4544	0.6574	-0.11688	0.23289	0.1058	-0.18527	-0.020158	0.0196	-0.0030948	0.0021594
-3.0328	-1.5773	0.82485	-0.14557	0.20724	0.039432	-0.22101	-0.0075852	0.031346	-0.0042695	0.0023844
-3.0761	-1.1918	0.81022	0.067565	0.23127	0.11426	-0.17703	-0.0021316	0.029544	-0.005413	0.0027885
-2.7044	-1.1925	0.91799	-0.1998	-0.03545	0.16852	-0.079039	-0.020497	0.017852	-0.049554	-0.010554
-2.9655	-1.4571	0.74615	-0.06336	0.20194	0.057252	-0.18945	-0.072147	0.033646	-0.0023186	0.0021293
-1.7221	-1.222	1.1623	-0.5549	-0.10636	0.11193	0.024431	0.024891	0.017993	-0.055547	-0.013316
-2.7549	-1.064	0.69139	-0.032751	0.079632	0.1365	-0.10386	-0.018769	0.021757	-0.024772	-0.003606
-2.7815	-1.1115	0.63632	0.073031	0.31155	0.021912	-0.16843	-0.017546	0.0022816	0.019793	0.006164
-1.3756	-2.5081	0.032017	-1.335	-0.049654	0.084212	-0.084014	0.036007	0.010167	-0.05476	-0.014514
-2.849	-1.1469	0.70419	0.039124	0.34029	0.052661	-0.18274	0.021444	0.022049	0.016057	0.007309
-1.7538	-3.0765	-0.084188	-1.2654	-0.096077	-0.21976	-0.26461	0.23039	-0.017024	-0.028225	-0.0063925
0.55667	-0.84481	0.72334	-1.4806	-0.97841	0.43817	0.37978	-0.027007	-0.011531	-0.14009	-0.03459
-1.3018	-0.5605	0.53357	-0.23114	0.027324	-0.052452	-0.0052027	0.082147	-0.0052215	-0.0060127	-0.0010692
-2.5746	-0.50823	0.39827	0.20499	0.081624	0.21264	-0.028184	-0.02619	0.047989	-0.023682	-0.0011246
-2.2933	-0.51405	0.35245	0.019764	-0.044113	0.28084	0.015054	0.021696	0.031208	-0.03782	-0.004752
-2.1888	-0.42153	0.39209	0.078835	0.043435	0.16993	0.0004851	-0.0038522	0.029212	-0.0219	-0.0024935
-2.4907	-0.40865	0.29475	0.25077	0.047203	0.18529	-0.01834	0.014792	0.038602	-0.021481	-0.00060866
-0.73655	-0.76396	0.29511	-0.69756	-0.45671	-0.085182	0.095981	-0.05837	0.0063513	-0.044438	-0.01437
-2.3386	-0.38715	0.3885	0.11505	-0.024658	0.32411	0.035956	0.00064463	0.028105	-0.039412	-0.0053644
-2.4815	-0.43041	0.29498	0.25198	0.040905	0.17838	-0.017105	-0.0013661	0.037236	-0.020687	-0.00070675
-2.4695	-0.33401	0.25923	0.28304	0.047462	0.19339	-0.0042598	-0.017533	0.020444	-0.017191	-0.0011622
-2.3776	-0.38934	0.21935	0.33069	0.46138	0.077649	-0.090466	-0.00021619	0.021123	0.02614	0.0085686
-2.3912	-0.40066	0.37029	0.28285	0.16945	0.14177	-0.040287	0.025847	0.062816	-0.010575	0.0034938
-2.4388	-0.35898	0.40827	0.29522	0.1982	0.18345	-0.034547	0.026323	0.025167	-0.0069177	0.0022421
-2.6154	-0.48686	0.19213	0.37099	0.18224	0.15785	-0.052106	-0.0015994	0.041196	-0.0055022	0.0034432
-2.0896	-0.2175	0.43668	0.19146	0.20481	0.20383	0.0035422	-0.035557	0.048151	-0.0087922	0.0017037
-2.5602	-0.37599	0.38301	0.32374	0.025854	0.15762	-0.019069	-0.003534	0.049885	-0.022938	-0.00058731
-2.5049	-0.3716	0.2252	0.43418	0.2897	0.086834	-0.065843	-0.001125	0.034584	0.0094301	0.005895
-2.4938	-0.42993	0.31196	0.26033	0.049619	0.19435	-0.013883	-0.011243	0.029418	-0.019739	-0.0010967
-2.3236	-0.36546	0.44255	0.26822	0.29484	0.071159	-0.06964	0.029809	0.044831	0.0064546	0.0057152
-2.3735	-0.3971	0.1531	0.21024	0.056594	0.20351	-0.0036164	-0.0020732	0.040348	-0.020878	-0.0007281
-1.9799	-0.21068	0.57617	0.050317	0.064596	0.22666	0.024935	0.014261	0.041809	-0.024796	-0.0018226
-1.8514	-0.29493	0.6272	0.036186	0.1372	0.095867	-0.0069105	0.058188	-0.0028417	-0.0065395	-0.00018194
-2.1919	-0.35353	0.50742	0.033594	-0.20626	0.30011	0.06714	-0.013301	0.045034	-0.054169	-0.0083549
-2.3928	-0.42608	0.3545	0.2162	0.23176	0.22214	-0.030172	-0.0083075	0.010145	-0.0043185	0.001449
-2.5092	-0.53064	0.33008	0.17163	0.11258	0.27516	-0.017424	-0.0031266	0.015615	-0.020805	-0.0016243
-2.0588	-0.38234	0.51702	-0.017048	-0.087094	0.21789	0.041711	-0.017734	0.044119	-0.040438	-0.0061922
-2.7227	-0.52072	0.31124	0.36906	0.15804	0.096379	-0.076775	0.0011363	0.056635	-0.0066008	0.0038051
-2.6576	-0.58905	0.21497	0.23258	0.24877	0.21537	-0.065587	-0.019023	0.023179	-0.0035105	0.0025475
-2.8196	-0.57385	0.42025	0.3402	0.2009	0.14603	-0.084654	-0.0094056	0.035464	-0.0048954	0.0030691
-2.5824	-0.57528	0.42047	0.17805	0.069311	0.19217	-0.041056	0.015162	0.033135	-0.023323	-0.0010407
-2.7491	-0.59346	0.33354	0.28647	0.22667	0.18836	-0.079441	0.024416	0.020945	-0.004884	0.0028957
-2.7192	-0.52794	0.31175	0.37173	0.15479	0.093411	-0.075227	-0.0059642	0.046617	-0.0051734	0.0035321
-2.785	-0.60934	0.38408	0.31109	0.17318	0.094288	-0.09226	-0.018735	0.051528	-0.0053896	0.0034358
-2.5613	-0.47571	0.38696	0.2341	0.078959	0.22699	-0.024557	0.014423	0.034137	-0.022967	-0.00090396
-2.3905	-0.53988	0.47005	0.054194	-0.091823	0.19371	-0.0032226	0.032993	0.0087296	-0.036223	-0.0062459
-2.692	-0.53913	0.53382	0.22028	0.067424	0.17208	-0.047173	-0.027534	0.056177	-0.025185	-0.0010455
-2.6184	-0.53162	0.36095	0.34224	0.29812	0.060685	-0.097496	-0.011524	0.03881	0.01115	0.006297
-2.6137	-0.58652	0.36125	0.30221	0.32248	0.09694	-0.098811	-0.0015493	0.037756	0.011037	0.0066584
-2.3551	-0.39155	0.40223	0.097008	-0.017777	0.3273	0.030694	-0.015963	0.040693	-0.038482	-0.0045198
-2.4355	-0.46952	0.42293	0.245	0.17454	0.13563	-0.050311	0.036272	0.032381	-0.0074667	0.0024003
-2.7079	-0.65116	0.30646	0.26981	0.19741	0.14279	-0.083211	-0.0023693	0.037865	-0.0050911	0.0032011
-2.3879	-0.54059	0.36949	0.16612	0.20848	0.17556	-0.046419	0.00097558	0.027264	-0.0060853	0.0020701
-2.7487	-0.52459	0.30959	0.29651	0.23949	0.19924	-0.069996	-0.021403	0.035385	-0.0048389	0.0029669
-2.7543	-0.57896	0.32461	0.27094	0.22616	0.1778	-0.083456	0.034455	0.018807	-0.0046497	0.0027685
-2.6819	-0.54399	0.23537	0.2739	0.18933	0.12005	-0.077382	0.0029818	0.022612	-0.0025711	0.0025333
-2.6568	-0.49281	0.22027	0.33607	0.20007	0.16051	-0.057084	-0.038875	0.044578	-0.0044535	0.0031379
-2.4406	-0.32785	0.50676	0.19843	-0.065943	0.26183	0.025268	-0.019962	0.042868	-0.037833	-0.0045293
-2.1317	-0.37783	0.46167	0.041184	-0.20226	0.33037	0.077451	0.0065184	0.029377	-0.053655	-0.0086099
-2.5724	-0.48589	0.40311	0.23434	0.08568	0.2362	-0.023057	-0.0042384	0.03389	-0.022479	-0.001039
-2.7003	-0.42496	0.2702	0.41415	0.16204	0.11439	-0.060624	-0.0059821	0.0412	-0.0046561	0.00324
0.55406	-3.0464	-0.17817	-2.5907	-0.22953	-0.021277	0.079218	0.28842	-0.059293	-0.086821	-0.028773
0.74465	-0.83862	0.072057	-1.4981	-0.55675	0.31335	0.29145	-0.12104	0.049004	-0.086611	-0.022291
1.5743	-0.82199	0.44521	-1.3942	-0.11202	0.17811	0.24165	-0.048617	-0.011908	-0.026639	-0.011258
0.45802	-1.0436	0.73181	-1.1446	-0.18375	-0.086324	0.14859	-0.026486	-0.014253	-0.024843	-0.012191
-0.83348	-0.4129	0.84057	-0.46906	-0.4394	-0.0094648	0.13148	-0.065943	0.0085442	-0.049276	-0.013764
0.77189	-0.55993	0.71201	-0.91302	-0.037521	-0.2844	0.09086	0.012617	-0.052367	0.012348	-0.0057821
-0.37189	-0.78167	0.25684	-1.0089	-0.73072	0.23272	0.25436	-0.2369	0.090961	-0.10315	-0.024881
1.682	-0.37056	1.2537	-1.1638	0.062615	-0.30255	0.095772	0.094851	-0.02588	0.012769	-0.0033456
-1.9804	-0.087445	0.55909	0.10288	0.086545	0.27627	0.037878	0.015091	0.027376	-0.022785	-0.0017178
-2.3581	-0.61367	0.19313	0.14619	0.0087565	0.12684	-0.027657	0.019424	0.01609	-0.018833	-0.0016339
-2.3065	-0.73682	0.2963	0.020558	0.19454	0.12644	-0.06285	-0.019142	0.025629	-0.0040253	0.0013375
-2.3618	-0.74569	0.36087	0.046136	0.13974	0.038052	-0.082608	0.042727	0.0085652	-0.0030018	0.001018
-2.638	-0.66106	0.48191	0.1137	0.079446	0.17987	-0.058933	0.0037702	0.03255	-0.022601	-0.0015788
-2.5881	-0.92448	0.2054	0.071056	0.19927	0.12592	-0.10719	0.044238	0.013941	-0.0035152	0.0027746
-2.8592	-1.1476	0.51139	-0.060818	0.2478	0.11787	-0.15756	-0.032532	0.018307	-0.0016169	0.001749
-2.6452	-1.0342	0.27013	-0.0060143	0.18501	0.064571	-0.13119	0.0041767	0.013662	-0.00082949	0.0017758
-2.2255	-0.80675	0.63249	-0.13029	-0.21994	0.2348	0.032703	-0.018885	0.024109	-0.061693	-0.012495
-2.7888	-0.86293	0.43103	0.17234	0.20678	0.12455	-0.11195	-0.040589	0.047985	-0.0049803	0.0030837
-2.6866	-0.99085	0.58937	-0.048203	0.12666	0.21859	-0.084734	-0.0081288	0.018158	-0.025024	-0.0031728
-2.6308	-0.67991	0.49092	0.13327	0.080041	0.19114	-0.053112	-0.0078344	0.035732	-0.02379	-0.0017345
-2.4523	-0.84718	0.48781	0.02861	0.18382	0.098212	-0.085542	-0.0043479	0.017081	-0.0039431	0.0010596
-1.3965	-1.2679	0.39951	0.081504	0.071197	-0.3568	-0.06168	-0.055623	-0.093354	0.049471	0.0035376
-2.0402	-0.68933	0.66938	-0.22201	-0.37858	0.23643	0.079282	-0.03777	0.020662	-0.075741	-0.017067
-1.5028	-0.71396	0.61361	-0.25388	-0.031009	0.08871	0.029331	-0.0031004	0.043761	-0.027467	-0.0042774
-2.6269	-0.56799	0.46518	0.17997	0.097787	0.2302	-0.038043	-0.0098869	0.031509	-0.022892	-0.0015201
-1.9521	-0.83339	0.77041	-0.27452	-0.24832	0.19449	0.040652	0.053477	0.03233	-0.066666	-0.012865
-2.5072	-0.98719	0.37446	-0.11604	0.088949	0.1628	-0.081225	0.0085121	0.018465	-0.022287	-0.0026861
-2.2289	-1.4429	0.13176	-0.42469	0.081391	0.10928	-0.09117	-0.1195	0.04388	-0.022163	-0.0042413
-2.6879	-0.87935	0.58429	0.04086	0.075672	0.15341	-0.081113	-0.015361	0.039019	-0.025247	-0.002323
-2.5753	-0.85692	0.17923	0.098033	0.22756	0.17665	-0.08859	0.0054274	0.012136	-0.0025535	0.0021827
-1.9899	-0.82723	0.33142	-0.28713	-0.23085	0.20421	0.033233	0.015791	0.018744	-0.057939	-0.012123
-2.7842	-0.70636	0.37894	0.21023	0.22143	0.15012	-0.10013	0.0012311	0.029003	-0.0043399	0.002778
-2.642	-0.71156	0.51599	0.13214	0.088509	0.20344	-0.051708	-0.044657	0.053638	-0.024912	-0.0013468
-2.3289	-0.57382	0.42094	0.065201	-0.14165	0.11833	-0.0016104	-0.010273	0.041195	-0.038862	-0.0061231
-0.6393	-1.8517	-0.33982	-1.3208	0.020439	-0.023292	0.017537	-0.22982	0.088862	-0.024848	-0.0082934
-0.038894	-0.76575	0.62728	-0.54523	-0.62697	-0.13165	0.18915	-0.023787	-0.091734	-0.039296	-0.017401
0.9165	-0.60692	0.39829	-0.43495	0.15004	-0.59301	-0.032379	0.082432	-0.03126	0.044045	0.0045958
-1.9005	-0.44245	0.23891	-0.017027	0.18872	0.15543	-0.012127	-0.010119	0.015329	-0.004288	0.00035592
-2.0564	-0.28318	0.36515	0.07414	-0.23224	0.30461	0.083092	0.038541	0.03837	-0.052298	-0.0071741
-1.6196	-0.74031	-0.046501	-0.21614	-0.41536	-0.024889	0.062868	-0.10471	0.053791	-0.04731	-0.01079
-0.38097	-0.072941	0.92413	-0.20293	0.31887	-0.26382	-0.033677	0.050251	-0.027615	0.032754	0.0028318
-0.19382	-0.3569	0.58035	-0.36915	0.059307	-0.42931	-0.010309	-0.012033	-0.0056186	0.026545	0.00040289
-0.76725	-0.07698	0.86603	-0.40625	-0.22605	0.084603	0.12203	-0.073821	-0.03709	-0.026332	-0.010959
0.085452	-2.2224	0.11217	-1.4093	-0.46678	-0.099844	0.13339	-0.0038281	0.0099748	-0.072058	-0.020764
-0.64409	-0.16476	0.20857	-0.29014	-0.0701	-0.15303	0.037207	-0.014203	-0.034683	0.0037232	-0.00063722
0.655	-0.66489	0.4097	-0.92247	0.0030795	-0.22931	0.058776	0.049109	-0.023836	0.0086219	-0.0034984
-1.7597	-0.284	0.35043	-0.012969	0.0015501	0.1394	0.033121	-0.015932	0.047489	-0.022171	-0.0021764
-1.3267	-0.082047	0.74671	-0.15307	-0.011555	0.14947	0.057129	0.032996	0.022042	-0.023522	-0.0038758
-0.488	-0.27254	0.63769	-0.1349	-0.055549	0.0067067	0.10574	0.013096	-0.075286	0.00081546	-0.0054206
-2.352	-0.27543	0.39192	0.1848	-0.072799	0.25823	0.032705	-0.017496	0.057324	-0.037239	-0.0034638
-2.3263	-0.25104	0.27158	0.34225	0.15596	0.13336	-0.014942	-0.021295	0.028141	-0.0040535	0.0018415
-1.7612	-0.093719	0.59837	-0.0065675	-0.10655	0.23554	0.076017	0.020333	0.041098	-0.039382	-0.0054021
-2.3439	-0.26258	0.19071	0.45407	0.39882	0.010224	-0.08395	0.029735	0.023604	0.022389	0.0078609
-1.5681	-0.085397	0.58107	0.014868	-0.03992	0.10583	0.052422	-0.033452	0.046138	-0.021607	-0.0025801
-0.90922	0.10395	0.79466	-0.067961	0.2956	-0.098803	-0.016014	0.047577	0.024822	0.014657	0.0033899
-1.4405	-0.025582	0.57519	-0.048619	0.12502	0.099579	0.017751	0.035179	0.016194	-0.0077264	-0.00067437
-2.0103	-0.085082	0.31725	0.22073	0.16916	0.16092	0.0072038	0.029224	0.018644	-0.0062194	0.0010792
-1.9413	-0.14878	0.27237	0.20639	0.14485	0.13571	0.0040729	0.014204	0.030983	-0.0065453	0.0014462
-1.4465	0.035523	0.70069	-0.050511	-0.16074	0.18731	0.094927	0.02294	0.032144	-0.03698	-0.0060049
-2.1969	-0.1874	0.17722	0.46277	0.49334	-0.099282	-0.10672	0.017546	0.031778	0.036093	0.010339
-2.3897	-0.22066	0.17039	0.3611	0.034376	0.20817	0.016233	-0.012454	0.057708	-0.020922	0.00060801
-2.4149	-0.25033	0.20089	0.34878	0.041133	0.21263	0.012772	-0.0043605	0.040854	-0.020372	-0.00022324
-1.2002	0.3916	0.92575	-0.1777	-0.37843	0.38781	0.17577	0.0072945	0.061922	-0.061777	-0.0085321
-1.0938	-0.034921	0.67362	-0.15041	0.11401	0.12395	0.040474	0.051376	0.018757	-0.010797	-0.00095817
-0.81198	0.16255	0.89048	-0.28197	-0.2056	0.15159	0.11878	0.026381	0.036705	-0.037495	-0.006708
-0.20557	0.23404	1.1643	-0.47724	-0.23229	0.17749	0.13713	0.062982	0.021661	-0.038272	-0.0072581
-0.12391	0.25015	1.3252	-0.58213	-0.36453	0.20309	0.18914	-0.0064841	0.01763	-0.050912	-0.012077
0.73448	-1.6442	-0.74688	-1.849	0.31777	-0.027865	0.056881	-0.20499	0.075229	0.0124	-0.0019317
0.50606	-0.22963	0.48453	-0.73982	-0.36288	0.013799	0.19214	-0.10317	0.01278	-0.029426	-0.010313
-1.0814	0.085724	0.91243	-0.16686	-0.0097715	0.18605	0.088402	0.038594	0.040395	-0.028385	-0.0035251
-1.621	0.1093	0.59952	0.082057	0.022067	0.21591	0.064969	0.0035352	0.037064	-0.022449	-0.0020408
-1.944	-0.21477	0.2958	0.19686	0.11114	0.087117	-0.0097553	0.057457	0.0095702	-0.0049268	0.00092166
-2.0066	-0.26402	0.092897	0.29217	0.20708	-0.024769	-0.036608	-0.0017753	0.007342	0.013223	0.0033693
-1.151	-1.0352	-0.12445	-0.31508	0.13545	-0.42987	-0.092024	-0.090254	0.045093	0.036672	0.0059862
0.14398	-0.40307	0.71371	-0.79152	-0.068296	-0.14933	0.067452	0.0072569	-0.021454	-0.0039047	-0.0061295
-0.76874	-0.75951	-0.35181	-0.47327	-0.34765	-0.098477	0.077723	-0.053391	0.00612	-0.022135	-0.0079336
-0.90224	-0.21726	0.81167	-0.21819	0.2167	-0.26984	-0.030056	-0.034051	-0.011986	0.027615	0.0020256
-0.090793	-0.23637	0.61457	-0.35149	-0.2051	-0.25345	0.063759	0.092572	-0.052529	-0.00024859	-0.0052927
-0.72378	-0.6234	0.036652	-0.45036	0.028886	-0.33858	-0.018385	-0.1147	0.021825	0.018486	0.00012522
0.50149	-1.7626	-0.38702	-1.6784	0.20693	-0.13898	-0.0019731	0.082923	0.038499	0.0061255	-0.00067985
-0.2848	-0.32261	0.41954	-0.19411	-0.33905	-0.47283	0.04875	-0.039691	-0.066139	0.01183	-0.0069081
-0.81018	-0.037484	0.53187	-0.19162	0.19522	0.0094738	0.021303	0.06408	0.028281	0.0011874	0.0016391
-0.47089	0.31881	1.1257	-0.36443	-0.037397	0.17977	0.10508	-0.003108	0.046914	-0.027147	-0.0040484
-0.53356	-0.31427	0.32704	-0.25734	0.031762	-0.21747	0.020447	-0.033608	-0.026989	0.015566	-0.0019407
-0.82149	-0.010452	0.48348	-0.26429	-0.28132	0.028354	0.11694	-0.052476	-0.0035952	-0.025335	-0.0085165
-0.54381	-0.78645	-0.024112	-0.64954	-0.7042	-0.15457	0.13867	-0.1074	0.019744	-0.05239	-0.016029
-0.86514	-0.17767	0.45306	0.091548	0.23471	-0.09264	0.0093679	0.028501	-0.0040129	0.019525	0.0035501
-0.96409	-0.0063598	0.69856	-0.14055	0.20638	0.020772	0.011555	0.088755	-0.017514	0.0050505	0.00011225
-0.52205	0.061569	0.66942	-0.24082	-0.36205	-0.018704	0.12731	-0.013974	-0.040145	-0.021388	-0.0090508
-0.43392	-0.0617	1.0222	-0.6641	-0.54219	0.074127	0.19015	-0.090006	0.08092	-0.070409	-0.015702
-0.067083	-0.42324	0.2793	-0.50506	0.059458	-0.15442	0.042384	-0.021635	-0.0088125	0.010555	-0.0011995
0.92359	-2.4835	-0.86674	-2.0214	-0.50732	-0.18188	0.089867	0.20122	-0.05719	-0.055695	-0.019658
-1.1271	-0.20167	0.075917	-0.23614	-0.034196	0.12442	0.061088	0.056642	0.022433	-0.019498	-0.002496
0.71462	-0.55207	0.33807	-0.90817	-0.28062	0.18376	0.20165	-0.026399	-0.0044563	-0.033434	-0.0098559
-0.54909	-0.83162	0.18701	-0.58606	-0.020804	-0.11668	0.054603	-0.090788	-0.0014134	0.00020075	-0.0037228
-0.27093	-0.10073	0.65311	-0.2812	0.32499	0.042735	0.024553	0.071185	-0.020603	0.013531	0.0021368
-1.8259	-0.23659	0.43705	0.073668	-0.023986	0.1141	0.036038	-0.025808	0.020777	-0.018719	-0.0027345
-0.54058	-1.1311	0.0032357	-0.85001	-0.13526	-0.10592	0.049954	-0.06505	0.0047598	-0.016842	-0.0069129
-1.2385	0.062854	0.71257	0.044656	0.38377	0.027032	-0.014614	0.0024885	0.027335	0.015096	0.004195
-0.96911	0.097805	0.73206	-0.30641	-0.46663	0.25192	0.17414	0.0013012	0.038167	-0.060399	-0.011329
-0.92103	0.027294	0.80948	-0.10888	0.3743	0.020361	0.01042	-0.019715	0.04114	0.014324	0.0041509
-1.7192	-0.16233	0.19909	0.16737	0.24074	0.030713	-0.013339	-0.035963	0.020985	0.0096169	0.0032566
-1.7894	-0.4316	0.49391	0.092927	0.39818	0.014757	-0.064949	0.048633	0.011046	0.022782	0.0069545
-2.2486	-0.78465	0.69501	-0.043576	0.18191	0.10144	-0.059098	-0.014446	0.016752	-0.0058529	-3.6111e-05
-2.4726	-1.0252	0.64177	-0.15886	-0.057906	0.18059	-0.044837	-0.028816	0.052209	-0.048152	-0.0077822
-2.8782	-1.276	0.60557	-0.01552	0.21494	0.10158	-0.16674	0.0012511	0.021928	-0.0038533	0.0023849
-1.5937	-1.2057	0.14327	-0.4951	-0.16664	0.061428	0.0088251	-0.032733	-0.0055839	-0.036073	-0.010518
-1.8363	-1.0477	0.83179	-0.38687	-0.14948	0.063067	0.010941	-0.02946	0.032466	-0.04795	-0.011113
-2.5394	-0.80814	0.60207	0.11839	0.1755	0.098856	-0.081649	-0.032154	0.014865	-0.0031915	0.00092548
-2.1016	-1.4042	0.44656	-0.42447	0.051571	0.084092	-0.066981	-0.083711	0.053502	-0.028059	-0.0050556
-0.36528	-1.0309	0.98826	-0.026318	0.36546	-0.25446	0.0038298	0.014607	-0.050529	0.060799	0.010169
-0.4396	-0.49751	0.73866	-0.62287	-0.10973	0.0060398	0.096258	-0.046061	0.078178	-0.030437	-0.0054465
2.5452	-1.419	0.23373	-2.1526	0.32553	-0.024364	0.22609	-0.15624	-0.036823	0.025223	-0.0068624
-0.75787	-0.36625	0.46855	-0.104	-0.11402	-0.14068	0.059573	0.0045528	-0.06369	0.0044619	-0.0049273
-1.7792	-0.58125	0.42561	-0.14244	-0.0056074	0.10854	0.0017896	0.025182	0.034804	-0.023223	-0.0027472
-1.9058	-0.82966	0.13501	-0.20991	0.025772	0.12661	-0.019324	0.033908	0.018166	-0.021607	-0.0031775
-1.2082	-0.57006	0.38181	-0.047308	0.2256	-0.19424	-0.058218	0.094384	-0.0033943	0.023501	0.0051205
-0.61198	-0.52008	0.92619	-0.61867	-0.06915	0.064755	0.072484	0.089891	0.015824	-0.02966	-0.0065863
-0.9291	-0.18318	1.0383	-0.42168	-0.14304	0.19668	0.12177	0.035414	0.019113	-0.044294	-0.0093322
-0.6591	-0.59023	0.75065	-0.46668	-0.019447	-0.082828	0.03894	0.067253	-0.013399	-0.0073587	-0.0041026
-1.1205	-0.43609	0.087297	-0.38506	-0.011743	0.12729	0.044127	0.066281	0.01068	-0.019829	-0.0033505
-0.44782	-0.22529	1.2588	-0.37804	0.25551	-0.13997	0.0020202	0.079542	-0.0027029	0.015476	0.0022679
-1.856	-0.46034	0.53063	0.024612	-0.037829	0.08993	0.021035	-0.035995	0.01671	-0.019084	-0.0036026
-2.0186	-0.57502	0.23468	-0.019711	-0.0048602	0.094015	-0.003761	-0.032718	0.039994	-0.020397	-0.0025722
-1.0884	-0.63297	0.80333	-0.58218	-0.088457	0.22148	0.097515	0.005771	0.0056375	-0.044167	-0.011125
-1.1209	-0.23541	0.45891	-0.43853	-0.42188	0.2641	0.14482	0.034862	0.033526	-0.063407	-0.012052
-2.0635	-0.32384	0.42497	0.14626	0.16527	0.13621	-0.0099924	-0.0064679	0.039437	-0.0078279	0.0013656
0.011781	-0.69526	1.2988	-0.59417	0.10501	-0.35003	0.043499	-0.0075809	0.041001	0.018409	0.0018474
-0.22315	-3.1682	0.34505	-1.2588	0.034039	-0.76291	-0.12281	0.096735	-0.123	0.088367	0.0093782
0.77727	-1.7796	-0.20781	-1.9706	-0.39709	0.14902	0.23219	-0.13371	0.015492	-0.082748	-0.025537
-0.017217	-0.53879	0.29355	-0.42497	-0.23515	-0.59272	-0.01613	0.10163	-0.064355	0.020174	-0.0037125
1.0749	-0.11359	0.82222	-0.54368	-0.41192	-0.42912	0.093091	-0.0030037	0.047212	-0.0085006	-0.003971
-0.47475	-0.49171	0.28111	-0.013818	0.19292	-0.38136	-0.019969	0.024177	-0.080448	0.047503	0.0028168
1.265	0.23021	1.7301	-0.98568	-0.64259	-0.097496	0.20264	0.025632	0.0099175	-0.048372	-0.014
0.50171	-0.53716	0.14983	-0.43657	0.11523	-0.45344	-0.049331	0.21649	-0.023396	0.025864	0.0031005
-0.16402	0.16797	0.6614	0.14329	1.0044	-0.4275	-0.16187	0.053798	0.023822	0.073236	0.014551
2.2013	0.21786	0.93087	-1.6559	-1.0528	0.38784	0.32495	0.0162	-0.027253	-0.067551	-0.014828
1.317	0.60804	1.6838	-0.52916	0.59852	-0.17973	-0.03268	0.075974	-0.015656	0.03113	0.0033963
0.50699	0.16035	1.0314	-0.075811	0.57788	-0.4775	-0.08557	0.086691	-0.027443	0.056008	0.0068456
1.3867	-0.095175	0.55102	-0.88304	-0.075747	-0.22047	0.063113	0.037739	-0.0031059	0.0026843	-0.0020603
1.6824	0.47375	1.1227	-0.74832	-0.067568	-0.11199	0.081771	0.089609	-0.012515	-0.0032236	-0.0032327
2.3238	-0.1626	0.8516	-1.1525	0.5584	-0.51751	-0.086653	0.072097	-0.054135	0.052682	0.0011249
-0.38942	0.52502	0.58607	-0.17341	-0.15466	0.051313	0.10997	-0.0061864	0.014626	-0.014944	-0.0037965
2.1356	0.59695	1.0544	-0.71693	0.12612	-0.28527	-0.0084933	-0.028146	-0.022047	0.015844	-0.0034633
0.80272	-0.22594	0.2218	-0.43305	0.19492	-0.2972	0.026407	0.047054	-0.024698	0.028549	0.001291
0.56674	0.25389	0.57589	-0.23594	0.38471	-0.29963	-0.039017	0.012207	0.016039	0.027161	0.0025738
0.93031	-0.88776	-0.353	-1.1456	-0.035936	-0.32471	0.040198	0.014554	-0.020561	0.014736	-0.0033463
3.3767	-0.3722	0.28442	-1.4483	0.15724	-0.14509	0.08685	0.093396	-0.089773	0.020789	-0.003194
1.9268	-1.3943	-0.62591	-1.6773	-0.14823	-0.18869	0.15635	-0.081172	0.096031	-0.012825	-0.0042805
2.0667	-1.2303	-0.80392	-1.197	0.23851	-0.45182	-0.029191	0.1249	-0.023917	0.036344	0.0025648
2.0371	-0.77231	-0.21188	-1.6358	-0.37654	0.072703	0.16707	0.23098	-0.026587	-0.03324	-0.0075566
2.4184	0.67343	1.0256	-0.59002	0.29859	-0.16656	-0.030272	0.05081	0.019904	0.0066496	4.1127e-05
2.1556	-0.064488	1.1931	-0.95618	0.23221	-0.4197	0.0032375	0.17954	-0.0016812	0.024416	0.0016925
2.0756	-0.71167	0.11647	-1.199	0.53889	-0.27054	-0.021837	0.11778	-0.028355	0.042543	0.0041951
-0.78141	-2.4357	0.057064	-1.2097	-0.29727	-0.45052	-0.052205	-0.045689	-0.18468	0.0028273	-0.018081
0.43459	-1.4012	-0.039319	-1.446	-0.40663	0.015523	0.15454	0.093813	-0.04699	-0.053969	-0.018775
0.25501	-1.4215	-0.18669	-1.4961	-0.18984	0.023859	0.1149	-0.032384	-0.07417	-0.028059	-0.016765
0.49739	-0.30183	0.92952	-0.81783	0.033772	-0.22021	0.085993	-0.032973	0.027551	0.0033978	-0.0033622
-0.05966	-0.92853	0.0085392	-0.7405	0.13828	-0.36401	-0.033399	0.0074921	0.024746	0.025422	0.0024725
-0.053202	-0.62467	0.40986	-0.96033	-0.44005	-0.012985	0.14262	0.00097609	-0.024711	-0.044069	-0.015357
-0.19066	-0.75942	0.058938	-1.0629	-0.34775	0.068586	0.13033	0.025246	0.035578	-0.053845	-0.013518
-1.1902	-0.68381	0.12381	-0.28548	-0.31792	-0.049749	0.053664	0.061153	-0.035942	-0.026173	-0.0082844
-0.050944	-0.96658	0.14741	-0.7765	-0.050003	-0.10137	0.064106	0.031416	0.0052472	-0.0064426	-0.0039715
-0.14266	0.050005	0.8076	-0.58379	-0.61526	0.11093	0.16626	0.058637	0.010092	-0.050643	-0.009818
-1.0884	-0.27383	0.59525	-0.11965	0.34236	-0.038617	-0.014917	0.020127	-0.001139	0.021731	0.0045662
-1.256	-2.675	0.46035	-1.1968	-0.3741	-0.37808	-0.08879	0.069716	-0.051822	-0.049097	-0.019621
0.8237	-0.91998	0.56403	-1.3788	-0.30823	-0.021638	0.16003	0.079669	0.0011082	-0.042958	-0.01361
0.97931	-0.088663	1.4083	-1.3719	-0.814	0.2594	0.31222	0.023329	0.014854	-0.097502	-0.024389
0.98801	-0.4725	0.37478	-1.2166	-0.21926	0.19727	0.20243	-0.090778	0.022002	-0.034644	-0.010731
1.4198	0.0053428	0.54745	-0.76093	0.41574	-0.23284	-0.0048443	0.049006	-0.025944	0.031356	0.00092638
1.4216	0.40283	1.0603	-1.0711	-0.0088932	0.081762	0.11004	0.052772	-0.020684	-0.011012	-0.0063139
-1.0048	-2.6526	0.28457	-1.3633	-0.2888	-0.50702	-0.1328	0.18554	-0.11034	-0.015677	-0.01437
0.98951	-0.0090116	0.69161	-0.93205	-0.14066	-0.16196	0.083799	0.037199	-0.04031	-0.0022161	-0.0069696
1.7977	0.72558	1.6839	-0.85123	-0.25866	-0.16323	0.077822	0.14013	0.01747	-0.017704	-0.0044764
1.7969	-0.25997	0.68813	-0.56566	-0.38171	-0.17408	0.16965	0.010478	-0.028406	-0.0061151	-0.0046978
3.7657	1.328	1.6097	-0.88717	0.33405	-0.25438	-0.14358	0.075269	0.023	-0.0011258	-0.0021779
3.2076	1.262	2.1095	-1.1573	-0.15312	0.23321	0.074725	0.072375	0.01588	-0.021883	-0.0027876
1.62	1.0906	1.5427	-0.45593	0.22165	-0.15947	-0.054597	0.064023	-0.0049259	0.0050133	-0.001666
1.9849	1.0078	1.4236	-0.27895	0.67164	-0.46051	-0.12713	0.07498	-0.015095	0.034009	0.00062546
3.687	0.87858	1.6595	-1.0665	0.34066	-0.29151	-0.087695	0.10603	-0.031626	0.013206	-0.0033388
2.3617	1.3975	1.6695	-0.6305	0.22717	-0.065815	-0.05414	0.041541	-0.013347	0.0018317	-0.003003
1.289	0.53844	0.91349	-0.63782	-0.10517	0.076288	0.10384	0.053175	-0.0072877	-0.010336	-0.0033571
2.8896	1.0638	1.6026	-0.9141	0.20791	-0.064164	-0.016008	0.0098661	0.017464	0.00029574	-0.0015073
2.6147	0.98547	1.3798	-0.59815	0.43373	-0.22635	-0.067773	0.052289	-0.0056505	0.013713	-0.0017188
2.3357	0.9245	1.7097	-0.76964	-0.25411	0.018856	0.090983	0.088887	0.010659	-0.017308	-0.0028994
1.8396	0.90151	1.7203	-0.66654	0.26865	-0.10204	0.00621	0.02582	-0.015162	0.0095716	-0.0021068
3.0811	0.81541	1.7498	-1.0022	-0.0096074	-0.078334	0.033253	0.12502	0.010747	-0.0080135	-0.0013688
3.6148	0.22597	1.1708	-1.4971	0.059013	-0.014209	0.084596	0.033013	0.01852	-0.0040883	-0.0032494
2.8704	0.86236	0.99267	-1.0792	-0.2728	0.31685	0.11252	0.11041	0.022201	-0.022371	0.00027252
2.5311	1.1226	1.6611	-0.76958	-0.068824	0.062858	0.041468	0.099759	0.067666	-0.019389	0.00035783
2.9646	1.1874	1.8649	-1.0292	-0.22915	0.062175	0.11507	-0.016522	0.057751	-0.020859	-0.003001
2.505	1.0469	1.7426	-0.71206	-0.137	-0.021344	0.030671	0.11103	0.040032	-0.015689	-0.00042631
2.4298	1.4908	2.5617	-0.79234	-0.067583	-0.0039711	0.036613	0.03308	0.03453	-0.015311	-0.0029192
2.778	1.2344	1.7746	-0.95832	-0.21067	-0.22887	0.0085803	-0.012118	-0.030147	0.0016694	-0.0058262
2.4901	1.1267	2.1061	-0.87266	-0.061832	0.021862	0.047074	0.074116	-0.0071288	-0.010827	-0.0037616
3.058	1.117	1.6798	-0.71012	0.26449	-0.15484	-0.024803	-0.0062191	0.060183	0.00060609	-0.00040124
2.8338	1.4387	2.4641	-1.2624	-0.34812	0.34757	0.14829	0.041158	0.0021157	-0.033892	-0.0057383
3.0672	1.1322	2.056	-0.9536	0.23295	-0.28266	-0.10842	0.16203	0.0036209	0.0024166	-0.0017139
1.6596	0.77205	1.6795	-0.76533	-0.34063	-0.0074749	0.13637	0.05644	0.045375	-0.028143	-0.0048009
1.0529	0.47986	1.5975	-0.6649	-0.023971	0.15679	0.12101	0.038244	0.009672	-0.018327	-0.0041232
1.4717	0.90178	2.148	-0.67521	-0.4361	0.10941	0.20012	0.031309	0.044753	-0.042288	-0.0074789
-1.0155	-0.5141	0.6094	-0.14183	0.28391	-0.092717	-0.02521	0.054066	-0.060394	0.027964	0.0021329
-0.36087	-0.81128	0.74933	-0.62112	-0.23706	-0.16835	0.10236	-0.066486	0.027622	-0.023984	-0.0089295
0.48852	0.29971	1.3449	-0.64682	-0.27856	0.18389	0.18336	0.056633	0.031594	-0.042464	-0.0079012
-0.32211	-0.55781	0.75084	-0.4189	-0.29336	-0.17652	0.097719	-0.056353	0.0068953	-0.017964	-0.007713
-2.299	-0.88703	0.50217	0.013786	0.29481	0.036518	-0.10353	-0.0054845	0.015073	0.014199	0.0052087
-3.0562	-1.1254	0.74541	0.037113	0.21982	0.06849	-0.17701	-0.041347	0.031092	-0.0027179	0.002098
-3.0542	-1.1084	0.73347	0.032465	0.21656	0.060439	-0.17872	-0.024709	0.02195	-0.0020029	0.001859
-0.23272	-1.2577	0.27923	-0.72227	-0.62563	0.072258	0.20749	-0.078806	-0.026713	-0.067683	-0.020743
-2.5885	-0.65278	0.33895	0.25695	0.2882	0.031519	-0.11172	0.0032406	0.023761	0.013807	0.0059237
-2.351	-0.93044	0.41612	0.026751	0.1204	0.01803	-0.088618	-0.011883	0.039624	-0.0049526	0.0017067
-1.3402	-2.9664	-0.11093	-1.577	0.0762	-0.3207	-0.2012	-0.14784	0.050035	0.0032681	-0.0034493
0.14288	-0.62445	1.0385	-0.87633	-0.61253	0.073237	0.22266	0.011914	-0.01653	-0.070216	-0.018793
0.96808	0.087678	1.0045	-0.61366	0.41429	-0.27771	-0.019596	0.044601	-0.026401	0.03381	0.0033461
-2.2508	-1.1175	1.2472	0.19489	0.35989	0.0074498	-0.08834	-0.021108	-0.0068606	0.03461	0.0094286
-2.6302	-1.1407	1.0086	0.17133	0.28664	0.067015	-0.1196	-0.034155	0.00083356	0.016465	0.00564
-3.129	-1.1858	0.8127	-0.033284	0.26076	0.102	-0.19152	-0.038234	0.025181	-0.0027854	0.0019584
-2.6362	-1.4901	1.0667	-0.008795	0.28019	0.024539	-0.15528	-0.02957	0.018894	0.016363	0.0066323
-2.8154	-1.4739	0.81418	-0.2592	0.11139	0.1326	-0.15299	-0.0019426	0.022514	-0.028228	-0.0040166
-2.1297	-1.6764	0.021495	-0.62151	-0.093189	-0.19934	-0.17949	0.169	-0.016477	-0.018755	-0.0051389
-1.156	-1.2687	0.11709	-0.70794	-0.36732	-0.25656	-0.016595	-0.053047	-0.10304	-0.011739	-0.014031
-2.3793	-1.0059	0.64179	-0.092247	0.19868	0.18622	-0.25515	-0.0046585	0.011862	0.00059786	0.0032867
1.2417	-3.0296	0.88612	1.0448	-0.96761	0.047529	0.41823	-0.088812	-0.20718	-0.014443	-0.0082666
-2.8312	-0.75785	0.41259	0.13878	0.22309	0.12059	-0.12145	0.027733	0.012949	-0.002879	0.0025814
-3.031	-0.89482	0.67028	0.13307	0.24274	0.12631	-0.14476	-0.028968	0.00055212	-0.00023821	0.0014068
-1.8259	-0.88626	0.5576	-0.47791	-0.33486	-0.030961	0.014759	-0.044442	-0.0007689	-0.053501	-0.016214
-2.7506	-0.74446	0.31706	0.11414	0.26014	0.18466	-0.10112	-0.012011	0.019013	-0.0028531	0.0022296
-2.9791	-1.1305	0.64353	-0.019956	0.23945	0.099772	-0.17325	0.0097138	0.0059716	-0.0018067	0.0016823
-2.9329	-0.89665	0.53964	0.077744	0.17612	-0.0035792	-0.15199	-0.0799	0.017045	0.0027092	0.001034
-1.3829	-1.8182	0.55549	0.94043	-0.54814	-0.083691	0.14618	-0.17941	-0.27815	0.014569	-0.012021
-2.3376	-0.89163	0.44383	-0.16505	-0.14569	0.038422	-0.03378	-0.06532	-0.061354	-0.026738	-0.01111
-3.0176	-0.88301	0.63648	0.10369	0.23203	0.09605	-0.15533	-0.00094697	0.03267	-0.0042446	0.0025491
-2.9657	-0.79887	0.57482	0.15906	0.22045	0.10053	-0.13839	0.0030559	0.022552	-0.0031273	0.0022367
-2.9761	-0.80021	0.57934	0.14524	0.22459	0.098047	-0.14122	-0.0049832	0.029561	-0.0035545	0.002375
-2.2277	-0.70888	-0.10074	0.064433	0.19101	-0.14679	-0.11627	0.025055	-0.007688	0.019915	0.0041179
-2.4584	-0.64858	-0.079158	0.001704	0.18804	0.058709	-0.094796	0.056727	-0.016096	0.0027307	0.0010132
-2.2574	-0.40463	-0.34644	0.08525	0.15939	0.042903	-0.045138	-0.018792	-0.0066681	0.005752	0.00045927
-2.6857	-0.94092	0.26508	-0.013891	0.16776	0.013754	-0.14629	0.065904	0.01087	-0.0014857	0.0019177
-2.7709	-0.45359	0.25298	0.2019	0.2294	0.12605	-0.093508	0.027091	0.016923	-0.0022395	0.0020828
-2.0839	-0.89707	-0.19308	-0.33694	0.045214	0.071872	-0.071454	0.054856	0.011824	-0.014508	-0.0022211
-2.6221	-0.70385	0.12861	0.031172	0.25057	0.15096	-0.097747	0.0040537	0.0063191	-0.0003718	0.0015115
-2.4945	-0.59024	-0.019983	0.094624	0.20652	0.10861	-0.075938	-0.017944	0.03658	-0.0019669	0.0023766
-2.6016	-0.90334	0.14045	-0.075617	0.24435	0.11663	-0.11376	-0.064069	0.02093	0.00092643	0.0012988
-1.3729	-1.3966	-0.11004	0.92514	-0.50901	-0.079728	0.15072	-0.11278	-0.2891	0.020733	-0.0060559
0.30855	-2.828	0.037804	1.4054	-0.88809	0.10494	0.34637	-0.18511	-0.30634	0.016388	-0.0080021
-1.8778	-1.0727	-0.15288	-0.31576	0.034658	-0.15773	-0.11456	0.046156	-0.038167	0.0083264	-0.0014891
-2.6971	-0.79125	0.24213	0.040928	0.20367	0.067086	-0.11651	-0.030682	-0.0039269	0.0029473	0.0014026
1.9114	-3.5056	0.47852	1.8692	-0.80729	0.077023	-0.016961	-0.12076	-0.27855	-0.027784	-0.02153
3.1219	-3.3586	0.40302	2.2037	-2.2906	0.1813	0.29725	-0.05642	-0.1595	0.091907	0.033503
2.3532	-3.5391	0.047632	2.5311	-1.3579	-0.083396	-0.14907	-0.12949	-0.42439	-0.015718	-0.04146
1.7369	-3.4676	-0.074062	2.0136	-1.424	-0.65503	-0.0072518	-0.025754	-0.37925	0.016235	-0.022094
0.79098	-2.2144	1.1342	1.1736	-0.86196	0.074762	-0.27947	-0.18443	-0.47213	0.065693	-0.0092943
-2.1584	-1.0156	0.82021	-0.20939	-0.035586	0.2626	-0.29968	0.031316	0.007389	0.052559	0.021881
-1.9099	-1.3809	-0.0043878	-0.2835	0.51471	-0.053067	-0.29267	0.08445	-0.035628	-0.083749	-0.02634
0.27336	-2.0303	0.23107	1.1955	-0.46964	0.056082	0.046092	-0.0502	-0.18365	0.0019629	-0.0071128
-1.3758	-1.0572	-0.24725	-0.51625	-0.019786	0.20858	-0.1401	0.079875	-0.00097369	0.023386	0.011563
-1.1107	-0.67445	0.45676	-0.4882	-0.31938	0.24125	-0.28433	-0.054986	-0.031476	0.084561	0.027738
1.3926	-2.3428	-0.32877	1.3392	-1.2173	-0.50378	0.087016	-0.03417	-0.34186	0.044862	-0.0036239
1.3735	-2.3675	0.20436	0.94045	-1.1256	0.52195	-0.14433	-0.018564	-0.16509	0.12373	0.036287
0.87942	-1.9567	0.2836	0.92026	-0.35585	0.34014	-0.12509	-0.090349	-0.30983	0.0035684	-0.015044
-0.68708	-1.2812	-0.38676	-0.63929	0.26028	0.10723	-0.31228	-0.023937	-0.0062153	-0.028889	-0.0073814
1.8457	-3.1872	-0.27413	1.2666	-1.093	-0.028202	0.016684	-0.0024702	-0.20895	0.022901	-0.0014346
-0.10629	-2.2521	0.0026144	0.59539	-0.48826	-0.05202	0.14494	-0.082091	-0.11833	0.0085621	-0.0016727
3.4255	-3.5316	0.34311	2.3175	-1.7801	-0.095365	-0.19039	0.031687	-0.26312	0.035387	0.00049058
-2.0386	-1.1386	0.28254	-0.22652	0.10104	0.042306	-0.25034	-0.012152	-0.0099775	0.0069945	0.002284
-1.8184	-1.155	0.64897	-0.29105	0.13307	0.17096	-0.31207	-0.045911	0.0040349	0.0046243	0.004272
3.2078	-3.5994	-0.19124	2.3823	-2.3312	-0.13704	-0.12951	0.021353	-0.14722	0.17422	0.052712
-1.7943	-0.76851	0.508	-0.092104	-0.18066	0.18223	-0.32014	0.0034016	-0.013712	0.083074	0.028312
-0.84302	-1.056	-0.035326	-0.75231	-0.14431	0.18537	-0.38383	-0.11105	0.020017	0.069814	0.023913
-0.89109	-1.0142	0.49245	-0.2079	0.067742	-0.044284	-0.38889	0.015171	-0.021127	-0.021975	-0.0062517
2.0126	-3.471	-0.39825	0.60341	-0.87325	-0.23414	-0.18979	0.063554	-0.17741	-0.008787	-0.011051
-1.5517	-1.5612	0.27733	-0.56241	0.23196	-0.07495	-0.15151	-0.032787	0.01008	0.010654	0.0022106
2.385	-3.492	0.36374	2.3473	-1.2202	-0.31569	0.29602	-0.036143	-0.27074	0.013082	-0.0048941
-0.11923	-2.3716	0.31672	1.2809	-1.012	0.22744	0.15912	-0.15277	-0.40851	0.10156	0.0071636
2.5559	-3.043	0.67296	2.0105	-1.6328	-0.065888	0.15052	-0.032027	-0.313	0.045079	0.0039983
4.8869	-4.11	0.03843	3.3029	-2.2118	-0.25499	-0.65975	0.094878	0.054403	-0.082239	-0.03
3.9597	-3.6545	0.11773	2.1391	-2.2143	0.33257	0.12301	0.038144	-0.10911	0.1023	0.04084
2.3948	-2.9536	0.92764	1.8979	-1.2381	-0.12169	-0.21093	-0.10585	-0.43629	0.021389	-0.0178
2.4963	-2.9323	0.081829	1.6804	-1.2074	-0.15632	-0.50247	-0.10426	-0.40969	-0.013533	-0.026515
2.5683	-3.5758	0.14325	2.3576	-1.7974	0.20315	-0.18918	-0.075697	-0.35099	0.14404	0.014246
1.7529	-3.0091	0.58524	1.9653	-1.053	0.035955	-0.58192	-0.18644	-0.42286	-0.040893	-0.054727
2.1214	-3.7908	-0.10775	2.4092	-1.265	-0.051525	0.14248	-0.011875	-0.3014	-0.0073992	-0.017553
-0.26769	-1.185	1.1918	-0.88111	-0.28305	0.42427	-0.97447	-0.033417	-0.031956	0.11144	0.045816
-2.1344	-1.2883	0.69726	-0.13488	0.077253	0.12405	-0.41589	-0.0031688	0.012724	0.0066912	0.0046168
4.1601	-3.547	0.79392	1.9388	-1.7051	0.17605	-0.42251	0.0089087	-0.19016	0.028765	0.0083895
6.8156	-4.4202	-0.8357	2.1254	-2.0595	0.39244	-0.2138	0.1673	0.20089	-0.027616	0.026752
2.3571	-3.783	-0.43449	2.1867	-1.3473	-0.23295	0.078369	0.15669	-0.27007	-0.015442	-0.01288
5.0677	-4.9717	-0.456	2.638	-2.8443	-0.89795	-0.057445	0.47119	0.6667	-0.054563	0.047677
5.9389	-5.4919	-0.89727	3.7862	-3.0166	-1.146	-0.22672	0.48582	0.75924	-0.15113	0.01848
0.50019	-2.4623	0.39035	1.3212	-0.7633	0.18482	-0.096917	-0.13063	-0.43388	0.055601	-0.011704
5.486	-4.7668	-0.33332	3.1538	-2.4059	-0.9549	-0.7186	0.23899	0.24881	-0.18293	-0.035442
4.3568	-4.9387	-0.40456	3.2993	-2.2698	-0.57556	-0.14908	0.21023	0.13672	-0.080213	-0.015017
6.4377	-4.9725	-0.40314	2.8936	-3.1942	-0.49286	-0.82138	0.44552	0.57654	0.053692	0.05774
6.8235	-4.9819	-0.68041	3.1012	-4.0441	-0.44944	-0.92301	0.50126	0.94076	0.3115	0.14886
1.4822	-3.6985	-0.14184	2.5043	-1.4278	-0.076523	0.15778	-0.086382	-0.35352	0.042237	-0.015833
4.5464	-4.1786	0.29754	2.6951	-1.6731	-0.16572	-0.79037	0.011079	-0.13543	-0.14867	-0.060133
-1.9625	-1.4843	0.28352	-0.35705	-0.1429	0.30923	-0.27567	-0.16786	0.11572	0.15948	0.05308
5.6021	-4.6787	0.57674	2.5574	-2.7114	-0.10138	-0.76922	0.096995	0.18594	0.080694	0.044197
2.3961	-3.5617	0.35002	1.6232	-1.7532	0.19466	0.32813	0.017215	-0.37498	0.054644	0.007012
-1.2174	-1.1992	0.90708	-0.55225	-0.0029498	-0.025659	-0.3172	-0.00098628	0.014338	0.001919	0.0034011
1.2727	-2.7991	0.10897	1.7925	-1.1506	0.25477	0.22145	-0.13772	-0.32561	0.054922	0.0018922
0.2478	-2.3928	0.99683	1.0443	-1.2475	0.38041	-0.05024	-0.12147	-0.29843	0.15033	0.03351
-1.3161	-1.2068	0.67122	-0.51635	0.035538	0.075071	-0.4079	0.015066	-0.0043245	0.0072545	0.0057109
-0.84982	-0.94263	1.3798	-0.6412	-0.20578	0.30482	-0.70826	-0.03308	-0.016894	0.072446	0.030353
0.80344	-2.4646	1.1677	1.2929	-0.54453	-0.10656	-0.41975	-0.14853	-0.49827	-0.025455	-0.04139
2.4575	-3.678	0.23521	2.5262	-1.9668	-0.09569	-0.13075	-0.074186	-0.32473	0.12932	0.012499
0.99019	-2.6908	0.59174	1.7306	-1.1111	0.055799	-0.34998	-0.13907	-0.41205	0.066499	-0.014502
5.1972	-4.9066	-0.37878	3.112	-2.7289	-0.74406	-0.21497	0.28151	0.32307	-0.033672	0.024298
-2.2748	-1.1846	0.39436	-0.12608	-0.043761	0.24473	-0.17064	0.00063136	0.038516	0.064829	0.025614
3.6249	-3.6187	0.071375	2.7049	-1.9628	-0.13541	-0.28727	-0.059998	-0.094709	0.028019	0.00076991
1.3821	-2.2384	1.2102	1.0615	-0.67335	0.11972	-0.3141	-0.2008	-0.35574	0.017099	-0.014562
-1.8494	-1.1282	1.0311	-0.19442	0.051732	0.18396	-0.55585	-0.014104	-0.035848	0.014948	0.0081545
1.5895	-3.2662	-0.22991	2.7463	-1.5025	-0.10795	0.13757	-0.092959	-0.3152	0.042662	-0.017539
1.7812	-2.8081	1.2606	1.4356	-1.37	-0.0063561	-0.10592	-0.15404	-0.40586	0.075191	0.0027152
2.166	-3.4511	-0.24222	1.9039	-1.048	0.044284	0.27029	0.03633	-0.25464	0.0039192	-0.0047047
1.8169	-3.2145	0.44332	2.1123	-1.3144	-0.080418	0.27919	-0.083668	-0.38917	0.034034	-0.006705
4.4967	-4.2357	0.31692	2.8082	-2.5585	-0.38671	0.40579	0.1841	0.081701	-0.017313	0.022537
2.4037	-3.2649	0.28859	2.0956	-1.7994	0.045994	0.21258	-0.042054	-0.32348	0.076538	0.012795
-0.95554	-0.82188	-0.141	-0.41913	0.21612	0.015136	-0.36756	-0.0070091	-0.087586	-0.025975	-0.012486
0.83158	-2.0699	1.0472	0.87095	-0.85098	0.26268	-0.12578	-0.12552	-0.28923	0.059335	0.006149
2.3414	-3.3681	-0.015937	2.1799	-1.5459	0.090464	0.29005	-0.060263	-0.30718	0.044366	0.0033863
4.6206	-4.3366	-0.60176	2.8687	-1.8442	-0.45786	-0.049065	0.18644	0.043215	-0.091773	-0.012567
0.33559	-2.063	0.4243	0.94081	-0.7325	0.30363	-0.018671	-0.17152	-0.15831	0.050312	0.0094573
-0.048507	-2.3255	0.29154	1.4552	-1.0613	0.21339	0.19432	-0.1492	-0.35112	0.089015	0.0079479
2.8747	-2.9842	-0.076503	1.6822	-1.1792	0.29235	0.10412	0.098016	-0.1551	0.0040979	0.0050631
3.1382	-3.3376	-0.034954	1.7364	-1.3403	0.025188	0.36792	0.019916	-0.16611	-0.00046656	0.0025677
3.8374	-3.7946	-0.50944	2.9271	-2.1223	-0.41617	0.10342	0.17511	0.10333	-0.01635	0.011959
3.0553	-4.016	0.033653	2.9056	-1.9904	-0.29362	-0.065129	-0.015617	-0.12964	0.022803	-0.002948
3.1546	-3.877	-0.26647	2.4473	-1.9761	-0.16268	0.15233	0.026793	-0.14427	0.047344	0.018706
4.0404	-3.7819	0.14919	1.9758	-2.1579	0.15999	0.34635	0.044856	-0.18867	0.041761	0.022509
4.9535	-4.3144	-0.31685	2.3422	-1.7146	-0.33374	0.011838	0.30948	0.08937	-0.072812	0.0012346
2.622	-3.317	-0.31202	0.74858	-1.1637	0.4174	0.31041	0.088126	-0.077894	-0.0070615	0.0094554
5.0516	-4.6428	-0.4331	3.2692	-2.4789	-0.52852	0.34982	0.27736	0.31047	-0.058379	0.024785
0.43074	-2.3942	0.043683	1.3818	-0.34102	0.04814	0.021814	-0.20919	-0.34427	-0.012138	-0.028164
4.2971	-4.4595	-0.041701	2.7209	-2.1144	-0.34514	0.28875	0.22575	0.040061	-0.026789	0.014125
4.6602	-4.3207	-0.28354	2.2777	-2.4978	-1.0299	-0.15969	0.25605	0.23446	-0.022233	0.019322
1.8108	-3.6309	-0.015325	2.2368	-1.3491	-0.38306	0.09803	-0.019762	-0.35043	0.0080463	-0.013356
2.2582	-3.9863	0.018998	2.5176	-1.8467	-0.17951	0.24413	-0.085053	-0.3533	0.067635	0.0024273
4.22	-4.7835	-0.26929	3.179	-2.0426	-0.72927	-0.19642	0.18673	0.049524	-0.11942	-0.032007
5.3913	-4.5317	-0.27084	3.2653	-2.9283	-0.57919	-0.16799	0.31489	0.56871	-0.014798	0.051978
5.4835	-4.8905	0.046901	3.0086	-2.9286	-0.88076	0.19744	0.37331	0.55287	-0.069858	0.042137
5.3335	-4.8466	-0.64825	2.5688	-2.3631	-0.86214	0.079009	0.37236	0.25037	-0.063551	0.018081
8.4185	-6.0436	-2.3015	2.0048	-2.3373	0.6407	-0.52662	0.70782	0.52487	-0.070945	0.036737
-0.43666	-2.2571	0.36586	0.73582	-0.073808	-0.23909	0.051644	-0.091106	-0.19483	0.059306	0.0040907
-1.016	-2.1563	0.14889	1.1845	-0.39845	0.13042	0.20331	-0.21089	-0.32466	0.034372	-0.007646
-0.93442	-2.1498	0.037293	1.1498	-0.42859	0.080828	0.19483	-0.12391	-0.25755	0.024201	-0.0044414
-2.8495	-1.0251	0.7894	-0.030239	0.13934	0.23113	-0.1066	-0.05289	0.030291	-0.01958	-0.0012214
-3.191	-1.162	0.92275	0.088922	0.22741	0.081373	-0.18809	-0.056661	0.055259	-0.0059877	0.0030355
-1.9079	-2.1165	0.53848	0.86885	-0.25152	-0.23917	-0.00049378	-0.14563	-0.49892	0.081576	-0.0047951
-3.2084	-1.2204	0.92249	-0.0069993	0.28712	0.15313	-0.19517	-0.013281	0.017066	-0.0041725	0.0020535
-3.2	-1.2386	0.93802	0.025035	0.28906	0.17542	-0.18717	-0.024638	0.016085	-0.0043066	0.0021057
-3.293	-1.3205	1.0647	0.026327	0.25829	0.10987	-0.21023	-0.05629	0.052285	-0.0067041	0.0030145
-3.322	-1.2585	1.07	0.029472	0.27666	0.13297	-0.21064	-0.016819	0.035501	-0.0064399	0.0027214
-1.5511	-2.393	0.7883	1.2426	-0.42226	0.042969	0.14798	-0.16836	-0.48394	0.050126	-0.012686
-3.2542	-1.2922	1.0074	0.018462	0.23138	0.06868	-0.21591	-0.0012081	0.043437	-0.0066925	0.0030015
-3.2968	-1.3137	1.0625	0.020184	0.25889	0.10657	-0.2116	-0.053111	0.048928	-0.0063168	0.0029239
-3.2491	-1.3187	0.9995	-0.021068	0.2988	0.17304	-0.20128	-0.025997	0.0090365	-0.0035339	0.0017596
-3.2851	-1.3244	1.0487	0.0083591	0.2492	0.087483	-0.21477	-0.054841	0.055256	-0.0065732	0.003005
-3.2795	-1.3975	1.068	-0.0025541	0.23366	0.073163	-0.22517	-0.0069312	0.050298	-0.0077509	0.0032715
-3.231	-1.4366	1.0118	-0.05735	0.26967	0.12775	-0.21607	-0.013907	0.016348	-0.0042463	0.0020455
-3.2265	-1.3636	0.97735	-0.056052	0.27912	0.12933	-0.20977	-0.050766	0.039572	-0.0053312	0.0024815
-1.7109	-2.4174	0.88157	1.0846	-0.36047	0.041346	0.11037	-0.18092	-0.42846	0.044448	-0.01124
-3.2385	-1.4329	1.0072	-0.078844	0.27107	0.11724	-0.22158	-0.013565	0.029217	-0.0054555	0.002414
-3.2819	-1.4311	1.0493	-0.083879	0.29595	0.14616	-0.21935	-0.045538	0.02041	-0.0038089	0.001867
-3.342	-1.4967	1.1328	-0.097696	0.31973	0.18063	-0.2258	-0.040221	0.004608	-0.0031084	0.0014647
-1.8622	-2.5112	1.045	1.0298	-0.35421	0.010827	0.072665	-0.14547	-0.39309	0.039075	-0.0098311
-3.3434	-1.4934	1.132	-0.099454	0.32023	0.1801	-0.2263	-0.038002	0.0042004	-0.0031168	0.0014758
-1.8542	-2.4354	1.038	1.0986	-0.35851	0.022155	0.092129	-0.18676	-0.41655	0.043119	-0.010897
-1.8783	-2.5235	1.0497	0.99027	-0.29495	0.093081	0.084068	-0.17221	-0.42785	0.042723	-0.011156
-1.02	-2.9506	1.0262	1.457	-0.68694	-0.12594	0.21894	-0.19253	-0.46886	0.045632	-0.012087
-3.1913	-1.5795	0.99906	-0.11836	0.22014	0.04175	-0.23627	-0.013006	0.024389	-0.0037684	0.002108
-0.8443	-3.0361	0.9124	1.4964	-0.70947	-0.087418	0.23997	-0.15804	-0.51547	0.049092	-0.013068
-1.8364	-2.5363	1.0561	1.0924	-0.38613	-0.0066016	0.087157	-0.16437	-0.45145	0.046544	-0.011924
-1.0205	-2.902	1.0079	1.4446	-0.68323	-0.12568	0.20625	-0.14213	-0.44473	0.04139	-0.010916
1.1683	-3.8078	0.86256	2.0953	-1.3979	-0.45015	0.48051	-0.049966	-0.28637	0.010901	-0.0039474
-0.23631	-3.2796	0.9267	1.6651	-0.91241	-0.19885	0.32602	-0.15265	-0.46142	0.039751	-0.011248
0.44532	-3.6307	0.9578	1.9108	-1.1899	-0.36238	0.40022	-0.086724	-0.38642	0.026193	-0.0078778
0.34553	-3.5825	0.99253	1.8073	-1.1063	-0.29552	0.38915	-0.10697	-0.37369	0.024809	-0.0078233
-1.2787	-2.922	0.95383	1.1142	-0.71992	-0.12909	0.17452	-0.18147	-0.52501	0.028946	-0.019249
-1.0598	-3.029	1.0839	1.424	-0.67982	-0.12395	0.20704	-0.18467	-0.47595	0.045927	-0.012298
-0.41016	-3.3505	1.1029	1.6192	-0.91225	-0.24477	0.28817	-0.11072	-0.43206	0.035046	-0.010101
-1.8393	-2.6237	0.98728	0.84963	-0.26352	0.10951	0.056689	-0.10207	-0.33202	0.028887	-0.0072276
3.5884	-4.6255	0.92026	2.6855	-2.2484	-0.97836	0.68033	0.2422	0.22256	-0.066003	0.016186
0.66333	-3.7351	0.75328	1.862	-1.3732	-0.64135	0.36168	-0.031273	-0.31353	0.021287	-0.0055418
-0.32349	-3.3518	1.0544	1.6884	-0.94157	-0.24951	0.30711	-0.16954	-0.4283	0.036804	-0.010223
0.31335	-3.6299	1.0482	1.8389	-1.1676	-0.38659	0.37111	-0.050855	-0.33118	0.018717	-0.005917
-1.0951	-3.0124	1.0687	1.321	-0.59093	-0.027161	0.20213	-0.18066	-0.43881	0.040138	-0.010926
0.29894	-3.5628	1.0503	1.869	-1.1455	-0.35326	0.38854	-0.11611	-0.35054	0.022911	-0.0071064
1.2069	-3.9355	0.83343	2.0213	-1.3743	-0.41515	0.48695	-0.033891	-0.33944	0.015612	-0.0056991
1.9282	-4.2833	0.43428	2.1442	-1.7676	-0.79925	0.39475	-0.031496	-0.15633	0.0042795	0.0010956
0.78364	-3.8793	0.94968	1.6061	-1.3293	-0.32242	0.35873	0.01639	-0.16202	-0.022691	-0.0041071
0.68591	-3.8647	0.94574	1.595	-1.32	-0.37845	0.41877	-0.013584	-0.26869	-0.016824	-0.0095056
-0.36877	-3.3942	0.96717	1.361	-0.73676	-0.043061	0.28532	-0.09903	-0.37659	0.025612	-0.0080044
0.38859	-3.6882	0.93814	1.706	-1.087	-0.28086	0.38409	-0.061098	-0.39862	0.025784	-0.0084463
-0.20505	-3.3924	0.88678	1.196	-0.61011	-0.13668	0.2289	-0.025481	-0.24939	0.033284	0.0022232
-1.0313	-2.9231	0.74016	0.75704	-0.40545	0.056578	0.11407	-0.041129	-0.37047	0.030228	-0.0089504
-2.8989	-1.536	0.61773	-0.25502	0.19866	-0.017908	-0.21322	-0.10279	0.048389	-0.0005235	0.0016498
-1.3855	-2.3438	0.71698	1.1541	-0.27874	-0.0041552	0.12674	-0.1717	-0.41784	0.064585	-0.0056368
-1.182	-2.643	0.55371	1.2357	-0.48241	0.064677	0.155	-0.16003	-0.47137	0.048854	-0.012496
1.8241	-3.8427	-0.081842	2.1832	-1.5793	-0.54067	0.44581	-0.062597	-0.3514	0.02885	-0.005501
-0.57334	-2.8787	0.58444	1.483	-0.65395	0.041386	0.279	-0.13517	-0.45208	0.039897	-0.010286
-0.58192	-3.2125	0.64245	1.3409	-0.73869	-0.12992	0.23742	-0.12478	-0.45994	0.04262	-0.010925
-1.7851	-2.7005	1.1305	0.52457	-0.29827	0.19754	0.054409	-0.1338	-0.15674	-0.014113	-0.0079074
-0.38578	-3.3548	1.0417	1.5328	-0.85989	-0.19243	0.29356	-0.15386	-0.43371	0.036414	-0.010626
-1.6813	-2.76	0.83898	0.76162	-0.30136	0.052344	0.055654	-0.12025	-0.32101	0.029539	-0.0071412
-1.3609	-2.6481	0.74886	0.70982	-0.43611	0.11861	0.14152	-0.14548	-0.31385	0.0033828	-0.014053
0.09349	-3.4859	0.77797	1.8566	-1.0838	-0.29934	0.35729	-0.13609	-0.51167	0.045941	-0.012225
-1.2098	-2.5673	0.84421	0.64264	-0.57252	0.16372	0.18802	-0.10416	-0.32846	-0.018485	-0.02012
-1.4655	-2.4931	1.0433	0.93371	-0.39562	-0.027331	0.12858	-0.16201	-0.38861	0.037504	-0.011197
-0.57696	-3.1104	0.6256	1.3847	-0.71441	-0.080441	0.24524	-0.13034	-0.42183	0.037787	-0.0094638
0.11182	-3.4019	0.68212	1.7482	-0.93781	-0.1035	0.37675	-0.13959	-0.49064	0.040874	-0.011249
-1.3914	-2.437	0.8922	0.80346	-0.30583	0.076169	0.13105	-0.15026	-0.32755	0.029109	-0.0089192
-3.0145	-1.5731	1.0627	-0.24311	0.1408	0.15929	-0.17339	-0.011009	0.029688	-0.03215	-0.0044757
-1.693	-2.4147	0.82579	1.0119	-0.37506	-0.016091	0.085609	-0.1454	-0.32818	0.032793	-0.0076465
-3.2978	-1.6385	1.0943	-0.19866	0.25847	0.055584	-0.25584	-0.035588	0.018863	-0.0024942	0.0014902
-0.83233	-2.745	1.1104	1.2357	-0.61323	-0.088403	0.23821	-0.16768	-0.41688	0.03686	-0.01186
-2.0441	-1.3871	0.49179	-0.49276	-0.3838	-0.11515	-0.043945	-0.015129	-0.021803	-0.056889	-0.017426
-3.1548	-1.1569	0.85158	0.017129	0.26607	0.12708	-0.18399	-0.031143	0.0064822	-0.0015127	0.0014281
-3.2794	-1.4225	1.036	-0.096925	0.29003	0.12983	-0.22241	-0.037616	0.011096	-0.0025638	0.001475
-3.0838	-1.3374	0.79915	-0.10235	0.26884	0.11701	-0.19785	-0.038241	0.02385	-0.0030329	0.001869
1.086	-3.4196	0.72247	1.3002	-1.1092	-0.11749	0.4845	-0.079271	-0.26395	-0.015181	-0.01169
4.8174	-4.9689	-0.7441	1.8789	-2.3049	-1.6305	0.13647	0.54192	0.62846	-0.089482	0.033124
0.44381	-3.385	0.91106	1.4719	-0.58685	-0.11035	0.011126	-0.11354	-0.38355	0.015132	-0.017286
3.3473	-4.6509	0.25949	2.5319	-1.7599	-1.1058	0.066203	0.14479	0.073182	-0.045116	4.691e-05
4.1914	-4.8576	-0.19952	2.7865	-2.2244	-0.87168	0.2413	0.28594	0.2197	-0.053585	0.015783
5.2094	-5.1816	0.047955	2.9028	-2.7378	-1.1372	0.46282	0.45822	0.54657	-0.098246	0.033302
6.7885	-5.4067	0.15489	3.6162	-2.9642	-1.3274	0.22288	0.57072	0.86821	-0.14815	0.04229
4.2684	-5.1253	-0.31547	3.0488	-2.8281	-1.2835	-0.093303	0.35058	0.51457	-0.058777	0.025838
3.6981	-4.5525	0.29785	2.589	-2.0059	-0.41997	0.39209	0.15923	-0.056753	-0.018993	0.0093688
3.6071	-4.6969	0.0137	3.1006	-2.2982	-0.61612	0.16049	0.13673	0.14884	-0.026556	0.014193
2.911	-4.3801	0.35426	2.8739	-1.7176	-0.68307	-0.023741	0.060969	-0.06859	-0.059834	-0.017057
0.18265	-3.6902	0.94007	0.84164	-0.8587	-0.25584	0.078697	0.06193	-0.18351	0.0054398	-0.0013807
-0.51812	-2.9224	0.6228	1.6287	-0.77425	-0.078636	0.28532	-0.17668	-0.55662	0.055622	-0.014511
1.0192	-3.7417	0.50111	1.9918	-1.4573	-0.63585	0.38558	-0.032462	-0.31137	0.022067	-0.0048614
-1.174	-2.5835	0.27817	0.78767	-0.30635	0.13436	0.12823	-0.13659	-0.25036	0.02209	-0.004414
2.4151	-3.7462	0.9838	1.7679	-1.3261	-0.15043	0.54047	0.00058745	-0.1668	-0.012918	-0.00043903
-1.1409	-2.6395	0.2961	0.83595	-0.322	0.1506	0.13291	-0.11438	-0.26917	0.022846	-0.0046623
4.3943	-4.4686	-0.10748	2.0888	-1.934	-0.72092	0.37715	0.28997	0.1109	-0.037339	0.016843
3.0727	-4.0746	0.69955	1.9654	-1.7282	-0.74428	0.10484	0.068685	-0.021142	-0.013932	0.004762
1.2851	-3.7559	0.63373	1.93	-1.4035	-0.16697	0.43864	-0.044909	-0.37233	0.0094307	-0.0090398
1.266	-3.2891	0.72005	1.1436	-1.3656	0.061629	0.44156	0.034362	-0.2138	-0.042434	-0.011773
1.469	-3.7971	0.026439	2.0668	-1.4474	-0.72811	0.20665	0.0099593	-0.33439	0.03094	-0.0079681
8.949	-5.9743	-1.7562	1.6981	-2.7608	1.1019	-0.16056	0.75247	0.5803	0.042395	0.095399
3.3502	-4.5134	0.010215	2.7625	-1.8369	-0.46057	0.26336	0.13329	-0.10833	-0.018116	0.0040105
0.45267	-2.438	0.43459	1.3147	-0.58733	0.0346	-0.047922	-0.11588	-0.37242	0.014252	-0.018454
4.9381	-4.5467	-1.9067	1.0263	-1.6284	-0.50966	0.16607	0.66689	0.20895	-0.061162	0.017793
5.2491	-4.3847	0.18092	3.3982	-2.5481	-0.74762	-0.23399	0.2635	0.28262	-0.075758	0.0084785
2.9324	-3.7946	-0.051269	2.3745	-1.5493	-0.34605	0.23174	0.05847	-0.19595	-0.0021059	-0.0030741
3.5076	-3.3267	0.50306	2.4497	-1.3558	-0.18969	0.20221	-0.041245	-0.27458	-0.002872	-0.0086487
4.4409	-4.4038	-0.01608	2.7558	-2.1524	-0.72473	0.20686	0.1627	0.072981	-0.035477	0.012432
3.8768	-2.5189	0.74726	1.9293	-1.9015	0.33883	0.39994	-0.10893	-0.23502	0.033858	0.011935
3.7766	-4.0478	0.27202	2.392	-1.694	-0.30454	0.24352	0.10872	-0.13628	-0.012194	0.0022432
4.9619	-4.3231	0.42589	3.0344	-2.1762	-0.74771	-0.32226	0.19856	0.18527	-0.10079	-0.0070593
4.5022	-4.6755	-0.37336	3.0425	-1.8207	-0.34513	-0.34243	0.12837	0.083414	-0.15592	-0.044899
3.8316	-3.3902	0.23518	1.699	-2.4598	-0.34978	0.35	0.079947	-0.076116	0.021383	0.018014
4.3553	-3.8401	-0.67655	2.4155	-2.3167	-0.59134	0.28201	0.15522	0.19169	-0.016493	0.022626
3.5772	-4.2905	-0.073129	2.5844	-2.1972	-0.80439	0.23398	0.14173	0.080906	-0.01962	0.012517
9.4631	-6.8041	-4.7669	-0.7778	-0.95981	2.2926	0.14974	1.2195	0.084731	-0.038107	0.040387
0.14079	-2.2541	0.27383	0.90153	-0.29498	0.21704	0.056567	-0.088675	-0.14838	0.00034464	-0.0042846
4.2278	-4.46	0.54869	2.8019	-1.7788	-0.77045	0.13108	0.16218	0.062255	-0.052535	0.0023893
6.7947	-5.3059	-0.53111	3.299	-2.3661	-0.32997	-0.38932	0.49897	0.59654	-0.18802	0.00091155
4.9942	-4.9613	-0.57068	2.6788	-2.8298	-0.96687	0.10218	0.40633	0.55841	-0.053925	0.040386
7.4968	-5.476	-0.33256	3.4097	-3.3031	-1.1145	0.2376	0.70122	1.1262	-0.16641	0.060476
5.2076	-4.7068	-0.88249	3.0718	-2.4229	-0.73609	-0.21616	0.38482	0.50065	-0.11561	0.0060553
7.4058	-5.321	-0.23887	3.1983	-2.8324	-0.9805	-0.4493	0.59221	0.7835	-0.17946	0.020565
4.7518	-4.1278	0.2869	1.7845	-3.0351	-0.40295	-0.71221	0.13533	0.1014	0.25378	0.089519
5.7818	-5.2233	-0.36296	3.0467	-2.6053	-1.2331	-0.12425	0.49005	0.65011	-0.14098	0.019001
1.9794	-3.7681	0.058768	2.1815	-1.1757	-0.4152	0.028199	-0.026232	-0.3821	-0.017774	-0.024067
8.2116	-6.6085	-3.8145	0.21656	-1.0501	1.4069	-0.03816	0.97671	0.053782	-0.10521	0.0025613
10.292	-7.43	-3.9464	1.0414	-0.57899	2.9594	-0.36496	0.95991	-0.059103	-0.23691	-0.045577
6.4446	-5.1969	-1.0252	3.3611	-3.3806	-0.98611	-0.17937	0.63335	0.99988	-0.070724	0.068245
6.1022	-4.8483	-0.029593	2.5498	-2.6833	-1.2255	0.092316	0.52431	0.68395	-0.11114	0.035985
8.6475	-6.9516	-3.0889	1.2857	-1.858	1.629	-1.1081	0.84748	0.17382	0.00058265	-0.039206
4.7277	-4.889	0.1616	2.2937	-2.0297	-1.2879	0.24686	0.31204	0.28847	-0.045522	0.020429
-1.8793	-1.2599	0.25676	-0.55479	-0.36884	-0.069656	-0.040878	0.11417	-0.035857	-0.052616	-0.014611
-2.4381	-1.3191	0.34174	-0.33872	0.11904	0.17365	-0.10601	-0.038077	0.022891	-0.020336	-0.0030354
0.30742	-2.8085	0.34665	1.2545	-0.86947	0.030222	0.38172	-0.10884	-0.31686	0.0018719	-0.011844
-1.1898	-2.5592	0.57823	0.73052	-0.44183	0.17215	0.14457	-0.055845	-0.30767	0.0052105	-0.011259
-2.6848	-1.5044	0.3819	-0.27663	0.23325	0.083264	-0.17988	-0.026552	0.015306	-0.00070327	0.0014055
-0.062216	-2.6705	0.58555	1.1103	-0.67159	0.19487	0.36705	-0.16811	-0.30418	-0.0017092	-0.012647
-2.8158	-1.1614	0.48013	-0.040051	0.20137	0.059032	-0.1587	-0.020057	0.0029502	0.0007757	0.0011575
-0.33655	-2.5573	0.44842	1.9116	-0.85393	-0.092219	0.32114	-0.15083	-0.49813	0.04914	-0.012051
-1.0019	-2.2814	0.25203	1.2846	-0.44648	0.13636	0.19033	-0.11013	-0.37795	0.036345	-0.0087453
-0.11082	-2.84	0.31529	1.2613	-0.75914	0.12215	0.35895	-0.2443	-0.39882	0.016507	-0.015218
0.041715	-3.0362	0.37511	1.4474	-0.99029	-0.076667	0.28895	0.0047343	-0.32134	0.0081205	-0.0082338
1.0394	-3.4249	0.47237	2.2258	-1.313	-0.3126	0.48138	-0.05716	-0.41702	0.029341	-0.0075473
-2.1943	-1.7358	0.3063	-0.57137	0.23205	0.090352	-0.14712	0.0035183	-0.017876	1.0192e-05	-0.00067722
1.9485	-3.7478	-0.060271	1.5319	-1.7106	-0.22296	0.23388	0.024052	-0.38919	0.063645	0.002375
11.693	-7.2785	-4.3467	0.95712	-1.473	2.7258	-0.22977	1.385	0.55564	-0.13282	0.046105
4.997	-4.891	-0.13248	2.5522	-2.2383	-0.66844	-0.075539	0.41643	0.32259	-0.079724	0.016346
5.5637	-5.4979	-1.6336	3.1162	-3.5497	-1.4869	-0.32457	0.55112	0.81242	0.026751	0.062819
4.4576	-4.6942	-0.25089	2.727	-1.7585	-0.73913	-0.13636	0.22681	0.00024473	-0.11123	-0.02017
2.6656	-3.7444	0.37835	1.8038	-1.5121	-0.44545	-0.60898	-0.049258	-0.47277	-0.010718	-0.027895
4.7865	-4.9177	0.038615	3.3724	-2.171	-1.054	-0.299	0.26127	0.28382	-0.17307	-0.027329
0.47203	-2.6693	0.98688	1.3108	-1.3799	0.21934	-0.28162	-0.15879	-0.31179	0.20697	0.041603
4.2999	-4.5926	0.3775	2.4192	-1.8961	-0.74799	-0.0261	0.15407	0.05375	-0.052786	0.0024208
2.5793	-4.0236	-0.24616	1.4916	-1.0326	0.025601	0.36628	-0.16589	-0.28983	0.021783	-0.0044343
4.0754	-4.7295	-0.45665	3.5501	-2.5481	-0.65204	0.046732	0.17754	0.19254	-0.02096	0.0083907
4.4711	-4.3824	-0.5543	3.5645	-2.194	-0.37628	-0.10502	0.13124	0.2041	-0.090561	-0.015537
4.3431	-4.3618	-0.7102	2.7903	-2.6486	-0.88474	0.18831	0.32238	0.39733	-0.0324	0.032729
0.32258	-2.8189	-0.13407	1.3129	-1.0426	-0.42406	0.070414	-0.13709	-0.63238	0.083378	-0.022067
0.87152	-2.9455	0.13051	2.1394	-1.2998	0.051527	0.27739	-0.088748	-0.47505	0.071755	-0.0044949
3.8653	-4.2819	-0.57053	2.6166	-2.1171	-0.49665	0.11527	0.20711	0.00026958	-0.0066303	0.0085633
-0.23518	-3.0209	0.62538	1.4117	-0.92626	-0.053106	0.27421	-0.07984	-0.38173	0.016652	-0.011608
-2.7087	-1.1643	0.53878	-0.025215	0.32761	0.02714	-0.17293	-0.012942	0.012794	0.018788	0.0063778
-0.25581	-2.8192	0.22721	1.4438	-0.70126	0.0044585	0.28674	-0.052216	-0.33678	0.02517	-0.0055213
-2.5773	-1.3535	0.21039	-0.26245	0.16503	-0.033204	-0.17342	-0.035753	0.017243	0.0023263	0.0011875
-2.5344	-1.5418	0.53356	-0.29263	-0.046676	-0.089856	-0.15828	0.012709	0.033031	-0.024525	-0.0041549
-0.12792	-3.0025	0.32864	1.1225	-0.88948	-0.13126	0.27633	-0.076017	-0.37891	0.013685	-0.013874
0.060807	-2.8133	0.22849	1.9426	-0.90996	-0.031003	0.31823	-0.12503	-0.42694	0.039867	-0.0092529
0.058478	-3.3053	0.16245	1.3901	-0.73965	0.0814	0.2568	-0.057359	-0.37165	0.029103	-0.0068265
1.5916	-2.6075	0.30236	1.2104	-0.64036	0.12287	0.42266	-0.0078258	-0.10933	0.0020399	0.0037733
-2.5056	-1.3135	0.41549	-0.31526	0.10175	0.13813	-0.11786	-0.022449	0.034836	-0.022805	-0.0025975
-2.4189	-1.6098	0.40017	-0.39676	-0.023651	-0.057004	-0.1543	0.02442	-0.002069	-0.01939	-0.0049262
-2.4252	-1.4835	0.73439	-0.25773	0.2852	-0.038032	-0.17127	0.0081563	-0.0042716	0.019626	0.0048677
-1.6391	-1.5552	0.64192	-0.85283	-0.090786	0.090696	-0.051689	0.06565	-0.012964	-0.042247	-0.011314
-2.7054	-1.6842	0.44485	-0.34392	0.21255	0.042786	-0.20779	0.013179	0.022635	-0.0027198	0.0019769
1.0386	-3.3077	0.1506	2.056	-1.0155	-0.16649	0.36508	-0.074324	-0.37503	0.037938	-0.004673
-0.36045	-2.4109	0.012292	1.4116	-0.8115	0.012899	0.30431	-0.10172	-0.43969	0.027647	-0.010793
-0.52139	-2.0632	0.22839	0.83014	-0.46871	0.24355	0.26036	-0.084475	-0.19774	-0.0068051	-0.0075564
-0.88835	-2.3402	0.18636	1.3193	-0.50558	0.087076	0.18648	-0.087294	-0.35364	0.033689	-0.0079066
-0.75965	-2.3808	-0.093417	0.97974	-0.39164	0.15471	0.16623	-0.047847	-0.21378	0.016	-0.0026388
-2.4472	-1.1951	0.81029	-0.21502	0.054739	0.094714	-0.081327	-0.027367	0.0019732	-0.024506	-0.0059631
-3.0527	-1.1272	0.7547	0.059762	0.22573	0.090811	-0.17318	-0.03553	0.048507	-0.0055739	0.0029587
1.6383	-4.1656	0.4454	0.89483	-1.4541	-0.088678	0.50784	0.098519	-0.25185	-0.066831	-0.019263
1.1284	-3.5377	0.42162	1.94	-1.3135	0.021808	0.30795	-0.05171	-0.34743	0.030195	-0.0028338
9.0332	-6.7674	-2.409	0.65447	-1.3412	1.5182	0.74717	1.0166	0.28759	-0.1285	0.034428
2.0886	-3.8947	-0.15082	1.4955	-1.2131	0.24708	0.37499	0.17757	-0.096281	-0.020877	0.0069364
3.6956	-4.6876	0.22503	3.0399	-2.1977	-0.78669	-0.04499	0.1522	0.22084	-0.064004	0.0047293
2.6009	-3.9331	0.30294	1.9196	-2.1258	-0.44532	0.079638	-0.00014263	-0.19652	0.073617	0.017578
2.2551	-4.041	-0.088523	2.1598	-1.2564	-0.098955	0.35023	0.16279	-0.28259	0.0070106	-0.001099
4.2205	-4.6843	-2.1203	0.54638	-1.9702	-1.0022	-0.30555	0.68591	0.019363	0.00094825	0.007314
4.5253	-4.8361	-0.070985	3.0416	-2.8479	-0.76604	-0.14731	0.24949	0.35286	0.012825	0.0418
4.3893	-4.752	-0.19001	3.3235	-2.1521	-0.81276	-0.34581	0.18907	0.19973	-0.15713	-0.037271
1.3652	-3.5399	0.39779	2.1653	-1.3408	-0.066712	-0.025101	-0.09626	-0.26645	0.034058	-0.0077653
11.941	-7.7088	-3.8465	1.1243	-1.3301	3.1793	-0.10202	1.2544	0.38756	-0.1234	0.043473
4.8825	-4.8906	-0.25425	2.8871	-2.7532	-0.98834	-0.28155	0.37732	0.54465	-0.059288	0.02899
4.0437	-4.6846	-0.48773	3.1714	-2.3278	-0.87277	-0.44726	0.16219	0.1481	-0.11343	-0.029846
6.0746	-5.2074	-0.45961	2.6655	-3.1924	-1.0545	-0.30342	0.47975	0.66228	-0.031451	0.056835
-0.18706	-2.6429	0.37495	0.89887	-0.4899	0.11798	0.20728	-0.16689	-0.1527	0.0082318	-0.0020382
-2.5787	-1.0924	0.39509	-0.007181	0.35121	0.088934	-0.15583	0.039453	0.0086976	0.01034	0.004896
-0.93569	-2.1828	0.30432	0.96434	-0.49679	0.19942	0.20048	-0.089006	-0.2861	0.010881	-0.0087918
0.15382	-2.7491	0.45576	1.203	-0.79199	0.10859	0.36427	-0.042998	-0.32935	-0.00035701	-0.01175
-0.33535	-2.3176	0.44812	0.51231	-0.51248	0.095889	0.23677	-0.078615	-0.23289	-0.0041821	-0.011221
0.64524	-3.309	0.35993	1.5872	-1.125	-0.10347	0.41701	-0.011212	-0.34191	-0.00073615	-0.010711
0.65776	-3.1386	0.47127	1.6422	-0.9487	-0.072585	0.41387	-0.038285	-0.40917	0.027115	-0.0086609
-2.4138	-1.5259	0.55681	-0.29856	0.01196	-0.24413	-0.18561	0.02468	-0.030692	0.0061241	-0.001726
1.2546	-3.209	0.31721	1.4264	-0.94001	0.00099617	0.42361	0.0093066	-0.24711	0.0046497	-0.0029182
0.1371	-2.9506	-0.031377	1.5116	-0.72408	0.12013	0.31207	-0.024745	-0.32195	0.021397	-0.0042916
-2.432	-1.2828	0.34146	-0.27908	0.06362	0.10008	-0.10703	-0.0032759	-0.0003381	-0.019336	-0.0041296
-2.2385	-1.2285	0.5812	-0.28981	-0.0029509	0.011479	-0.081766	-0.030342	0.0044275	-0.020755	-0.0057192
0.7916	-2.375	0.78809	1.1769	-0.78784	-0.080215	0.38115	-0.098856	-0.29176	0.01644	-0.0083782
-2.122	-1.1082	0.47535	-0.15967	-0.027414	0.033132	-0.042705	-0.056247	0.0075574	-0.0206	-0.0054819
-2.033	-1.3342	0.15	-0.27351	0.079558	-0.049135	-0.13366	0.025703	-0.0056173	0.0017686	0.00020141
-2.437	-1.1045	0.029664	-0.12659	0.1579	0.010016	-0.12517	-0.031199	0.014476	0.0022629	0.0011656
-2.0095	-1.4541	0.35347	-0.52099	-0.021316	-0.026318	-0.11497	0.02228	0.014296	-0.017843	-0.0038694
-2.767	-1.3946	0.47643	-0.1505	0.19272	0.042074	-0.18414	0.024607	0.033188	-0.0044118	0.0026021
-2.3855	-1.4899	0.52123	-0.31212	0.1804	0.041872	-0.14522	-0.0059461	0.03598	-0.0058488	0.0014387
-2.1884	-1.4212	0.36506	-0.45842	-0.1744	-0.044188	-0.083858	-0.0046289	-0.030384	-0.035859	-0.012069
-0.65653	-2.2994	0.74752	0.81307	-0.69821	0.12602	0.26802	-0.12426	-0.28549	-0.016464	-0.016994
-2.0787	-0.96151	0.22748	-0.24543	-0.14914	0.12507	-0.043041	-0.064482	0.033939	-0.012995	-0.0001745
3.8353	-4.4196	-1.0286	0.85979	-2.0033	0.0062968	0.49645	0.3797	0.04651	-0.057428	0.013031
5.8331	-5.3178	-1.0712	2.9401	-2.4608	-0.64475	0.021206	0.49994	0.40086	-0.097726	0.015423
10.075	-7.0766	-3.413	-0.021302	-1.1715	2.9182	0.28946	1.0266	-0.0089003	-0.016789	0.053089
5.9593	-5.6096	-0.47288	2.6562	-2.5574	-0.069564	0.12902	0.17116	0.2842	-0.018318	0.033946
-0.40505	-3.1626	0.54924	1.2455	-0.68064	-0.32666	0.18954	-0.11034	-0.31652	0.051855	0.00018133
-0.93508	-2.3545	0.23629	0.78702	-0.31993	-0.44392	0.055327	-0.17706	-0.41585	0.093535	-0.0037879
0.71408	-3.2634	0.097249	1.8756	-1.2415	-0.45202	0.37928	-0.050782	-0.44576	0.041041	-0.0096547
0.47993	-2.8802	0.32123	2.1164	-1.0933	-0.17947	0.4159	-0.078533	-0.45423	0.038283	-0.0092979
-0.76565	-2.4833	0.15568	0.79056	-0.48614	0.19657	0.20758	-0.12634	-0.25687	0.0039654	-0.00924
-2.061	-1.3085	0.22545	-0.39907	-0.13296	0.067788	-0.045069	-0.019041	0.0065997	-0.039945	-0.0098434
-2.1649	-1.4293	0.41381	-0.3442	0.29087	-0.022466	-0.15169	0.023764	0.0081832	0.017248	0.0049625
-2.5798	-1.5142	0.28324	-0.26152	0.17037	0.010484	-0.18272	0.04023	0.014339	-0.0017712	0.0022807
0.056364	-1.7029	-0.06687	0.66858	-0.5637	0.10475	0.25873	0.0017928	-0.089415	-0.014328	-0.0030952
-1.0035	-0.51903	0.90197	-0.23887	0.1081	-0.13732	-0.042584	0.012421	0.026238	0.0040761	0.00081086
-1.4182	-1.3514	0.28594	-0.61755	0.14351	0.038976	-0.047082	0.05113	0.0025825	-0.0063869	-0.0015838
-0.84215	-2.2491	0.62087	0.88834	-0.5307	0.098256	0.23973	-0.17139	-0.29197	0.0040342	-0.013243
-2.0695	-1.1601	0.65326	-0.37018	-0.077869	0.14736	-0.0082044	-0.087693	0.035595	-0.046943	-0.010651
-2.2378	-1.3416	0.24613	-0.11949	0.34741	-0.1459	-0.17641	-0.040712	-0.0047788	0.043291	0.0093035
-2.1173	-1.0517	0.766	-0.14982	0.21407	-0.10741	-0.11513	0.032937	0.010378	0.014686	0.0038859
-2.3987	-1.5228	0.60025	-0.49615	-0.046733	0.10405	-0.084218	-0.1187	0.047036	-0.049978	-0.011739
-1.114	-1.3534	0.28977	-0.61878	0.38938	-0.056793	-0.050834	-0.099662	0.031777	0.03419	0.0067571
-2.304	-1.8074	0.47756	-0.48748	0.14623	-0.040267	-0.16849	-0.030852	0.02327	-0.0022396	0.00043445
-1.642	-1.9438	0.65388	-1.0465	-0.047269	0.072119	-0.036533	-0.043277	0.042972	-0.059082	-0.015172
0.029146	-3.8532	0.90618	0.66032	-0.51421	0.17523	0.26574	-0.08556	-0.23495	0.0036824	-0.0043766
1.4159	-3.7803	0.31108	1.9564	-1.109	-0.21699	0.43172	0.036624	-0.34857	0.033292	-0.00026916
-0.7777	-1.9656	0.3609	0.67759	-0.38406	0.23201	0.23303	-0.17032	-0.18199	-0.0063034	-0.0090252
-1.1175	-2.3885	0.57838	0.42902	-0.46981	0.23372	0.1756	-0.05003	-0.16926	-0.03853	-0.014367
-2.447	-1.7451	0.15566	-0.45657	0.20356	0.032101	-0.18822	-0.029823	0.031729	-0.0010656	0.0017637
-2.2804	-1.8611	0.26752	-0.6148	0.063766	0.057495	-0.15605	0.0084611	0.031876	-0.02528	-0.003881
-2.9002	-1.6601	0.92572	-0.36085	0.12361	0.10994	-0.18213	-0.014688	0.031273	-0.03067	-0.0049069
-0.68132	-2.5426	-0.12971	0.6524	-0.10778	0.23318	0.15641	-0.13391	-0.19055	0.033894	0.0026003
-2.7043	-1.8444	0.49554	-0.37515	0.19257	0.01315	-0.21666	-0.033304	0.018871	-0.000463	0.001455
-1.0156	-2.1446	0.086725	1.0859	-0.34727	0.16848	0.19668	-0.16747	-0.23269	0.021262	-0.0036644
-1.7439	-1.7416	0.50925	-0.79436	0.085275	0.12059	-0.067082	0.092304	-0.028285	-0.028713	-0.0079286
0.043514	-2.7519	0.53599	1.149	-0.74092	0.13687	0.36652	-0.13013	-0.35676	0.0047724	-0.013915
-1.7202	-1.2302	0.61704	-0.45149	0.12372	-0.012781	-0.058616	-0.055283	0.02868	-0.0055193	-0.0016707
-0.89152	-2.8225	0.47289	0.63812	-0.40122	0.0064963	0.12139	-0.018981	-0.19861	0.010603	-0.0029354
-0.9009	-1.4817	-0.060366	-1.3684	-0.5478	0.35719	0.1397	-0.047058	-0.0054021	-0.1071	-0.028774
-2.5349	-1.7999	0.7894	-0.33829	0.13708	-0.022823	-0.18789	0.021195	-0.03558	0.0014929	-0.0010191
0.87831	-3.7903	0.60995	1.8786	-1.202	-0.26616	0.42503	-0.051193	-0.37586	0.02304	-0.0064885
1.6241	-4.0597	-0.038119	1.8025	-1.3959	-0.41371	0.44098	0.074834	-0.46436	0.033435	-0.0086976
-0.030129	-3.2403	0.64769	1.1412	-0.58711	-0.11306	0.25093	-0.13399	-0.348	0.048017	-0.0033415
1.3189	-3.0396	0.081756	1.9165	-1.0499	0.060179	0.40995	-0.13926	-0.39482	0.03202	-0.0077754
0.53284	-2.856	-0.033893	1.5747	-1.0042	0.090448	0.32015	-0.018968	-0.28819	0.01745	-0.0034527
-0.3222	-2.8964	0.2809	0.48967	-0.5476	0.16782	0.14054	0.0073927	-0.20152	0.00062119	-0.0044884
-0.52015	-1.9769	0.6476	0.74184	-0.96749	0.23447	0.32162	-0.15042	-0.23808	-0.03779	-0.018821
-0.81128	-2.378	0.24882	0.88831	-0.54651	0.14991	0.16313	-0.069431	-0.17933	0.0040364	-0.0034934
-2.2372	-1.7009	0.07885	-0.47189	0.24593	-0.15939	-0.22514	0.020127	0.0014083	0.013631	0.0026733
-0.50554	-2.1501	0.75753	0.84779	-0.66811	-0.0522	0.1905	-0.070499	-0.17501	-0.0036898	-0.0069929
1.3104	-3.1465	0.39013	1.9841	-1.6186	0.17023	0.044031	-0.034801	-0.13191	0.11728	0.032497
0.7976	-3.2493	-0.064877	1.7608	-1.2511	0.22251	0.038479	-0.048673	-0.35572	0.14141	0.010209
3.0596	-3.904	-0.63768	2.9363	-1.6732	-0.27726	0.13705	0.13313	-0.033885	-0.051304	-0.0078153
3.0088	-4.7423	-0.43707	2.7015	-1.9733	-0.80716	0.058208	0.13419	-0.097903	-0.03218	-0.0063949
1.0643	-3.1452	-0.16647	1.0682	-1.2725	0.064748	0.45366	-0.079796	-0.20534	-0.039007	-0.010871
4.5945	-4.7319	-0.43426	2.821	-2.3185	-1.0047	0.48091	0.37149	0.30685	-0.059932	0.026323
3.1928	-4.1622	0.44555	2.4238	-1.9292	-0.57925	0.40302	0.11223	-0.06916	-0.015001	0.0093558
4.0359	-4.7386	0.0018145	2.9678	-1.9032	-0.6035	0.015712	0.16977	0.069817	-0.07705	-0.0077254
3.2628	-4.4097	0.25862	2.6154	-2.0276	-0.56435	0.30246	0.027936	-0.11598	0.000376	0.0051511
9.0601	-7.1298	-4.2846	0.15966	-1.0961	2.1222	-0.1029	1.0858	0.16842	-0.073606	0.02521
5.9443	-5.0042	0.12934	2.8929	-2.5316	-1.2365	0.38985	0.53445	0.65719	-0.10749	0.039444
6.105	-5.2113	-0.63168	3.1254	-2.9637	-0.71352	-0.58716	0.48775	0.77035	-0.076687	0.033303
5.725	-5.2968	-1.4242	2.6504	-3.2785	-1.4273	-0.13482	0.61459	0.87055	-0.056023	0.055081
5.4746	-4.8319	-0.51349	2.4962	-3.2299	-0.91685	0.16694	0.46529	0.68108	-0.039414	0.060973
4.5889	-4.6713	-0.25777	2.7783	-2.6069	0.085856	-0.11008	0.039704	0.069737	0.13508	0.050364
11.752	-7.445	-3.5541	0.6387	-1.0125	2.8206	0.28356	1.2363	0.3478	-0.16482	0.037351
5.6701	-4.959	-0.60487	2.2917	-3.0052	-0.93112	0.14359	0.46028	0.59448	-0.05247	0.050116
3.3914	-4.8626	-0.096088	3.1177	-2.311	-0.63552	0.078339	0.085558	0.056188	-0.0076019	0.0060625
4.8606	-4.7088	0.15905	2.5644	-2.3061	-0.9019	0.10571	0.26723	0.23853	-0.055118	0.016236
8.398	-6.4518	-1.4322	3.1922	-3.2141	0.35225	-0.6527	0.67879	0.79982	0.013064	0.063036
5.9861	-5.6827	-1.3739	3.1039	-2.6009	-1.1911	-0.47583	0.57718	0.72948	-0.24468	-0.01879
0.47658	-2.4755	-0.18742	1.1967	-0.50333	0.078966	-0.01564	-0.035355	-0.1458	-0.022435	-0.014324
1.5494	-2.7463	0.50658	1.8186	-1.7136	0.37077	-0.3176	-0.17666	-0.39796	0.29034	0.053189
-1.1517	-1.2685	1.1345	-0.16006	0.66773	-0.26771	-0.7762	-0.02375	-0.11482	-0.19212	-0.065638
3.9777	-3.7575	0.1608	2.387	-2.1925	0.25798	-0.72088	0.004563	-0.18007	0.18177	0.030963
-1.1317	-1.6163	0.43535	-0.32013	0.0039953	-0.21709	-0.47162	0.035671	-0.07462	-0.031305	-0.014155
-0.59659	-2.585	-0.012372	0.95988	-0.64012	-0.16056	0.012475	-0.14323	-0.45205	0.056133	-0.0043429
2.8521	-3.9019	0.07663	2.2725	-2.092	0.51269	-0.29179	-0.1247	-0.1974	0.30004	0.061797
3.0522	-3.5804	0.70258	2.3073	-1.8042	-0.06978	-0.57228	-0.080066	-0.36898	0.06813	-0.0085013
3.1023	-3.1009	0.23727	1.4346	-2.4414	-0.39762	-0.38112	0.032605	-0.1598	0.21979	0.060835
2.9263	-3.8939	0.026581	2.7864	-1.85	-0.007212	-0.39627	-0.070514	-0.087704	0.03644	-0.018662
0.67695	-2.9534	0.48893	1.4645	-0.85298	0.21014	-0.075815	-0.14039	-0.44501	0.054665	-0.012568
2.023	-3.1623	0.52834	1.6803	-1.5537	0.29973	-0.54264	-0.15667	-0.3655	0.18863	0.024439
1.3451	-3.4193	0.27536	2.2358	-1.3571	0.030166	-0.25517	-0.2027	-0.48235	0.081079	-0.035273
2.5879	-3.3612	0.14841	1.484	-2.3229	-0.24209	0.065309	0.00044719	-0.21847	0.14853	0.045607
0.83867	-3.2082	-0.12911	0.35496	-0.66842	0.42862	0.39063	0.058963	-0.083	-0.058421	-0.0079933
-1.1909	-1.9018	0.2981	1.3785	-0.45383	0.059699	0.19895	-0.087889	-0.35004	0.033432	-0.0073701
-0.0013541	-2.3529	0.01812	1.8582	-0.76527	0.078306	0.36674	-0.13031	-0.35725	0.03058	-0.0064846
1.9681	-2.6635	0.53332	1.7082	-1.2906	0.0094675	0.40233	0.029233	-0.2371	0.0014076	-0.0019695
-1.9729	-1.2395	0.63871	-0.61814	-0.34001	0.20404	0.021758	-0.061775	0.045436	-0.080386	-0.017849
-1.3451	-2.0036	0.20519	0.45543	-0.5595	-0.002465	0.12962	-0.15229	-0.33757	0.0039633	-0.0138
-2.1666	-1.3727	0.668	-0.43673	-0.30174	0.06529	-0.049558	0.024782	-0.0054556	-0.051953	-0.012479
-2.052	-1.3038	0.64447	-0.46055	-0.11094	0.079684	-0.03602	0.012688	0.0060372	-0.047481	-0.011746
-1.0905	-2.049	0.52015	0.91436	-0.30911	0.13856	0.15838	-0.11196	-0.18286	0.012015	-0.0030661
0.1657	-1.9368	0.24703	0.69468	-0.85202	0.41431	0.25839	0.019623	-0.19622	0.0047527	0.00054448
-2.4829	-0.88714	0.096299	0.1011	0.16872	0.10243	-0.091792	0.040668	0.0089519	-0.0017464	0.0012218
-2.5096	-1.4334	0.18196	-0.24961	0.14638	-0.036573	-0.16539	-0.063999	0.027918	0.0016506	0.0023065
-2.0217	-1.1304	0.12698	-0.37823	-0.16072	0.017673	-0.037623	-0.059577	-0.011347	-0.029815	-0.0094312
-1.1751	-2.4269	0.52383	1.3623	-0.55448	-0.03463	0.15242	-0.17503	-0.41331	0.045075	-0.011065
-0.59651	-2.1902	-0.10908	0.82007	-0.45911	0.2638	0.22837	-0.041724	-0.17522	-0.0058783	-0.0047943
-2.1459	-1.2155	0.58069	-0.4906	-0.23158	0.16463	-0.037552	-0.050251	-0.022186	-0.037138	-0.0099184
0.73821	-3.0811	-0.069065	1.5238	-0.9084	-0.020601	0.32648	0.038192	-0.31579	0.018794	-0.0023939
-0.17791	-2.7146	-0.052746	1.3588	-0.49209	0.023933	0.08116	0.052041	-0.23762	-0.0064772	-0.013458
3.1245	-4.1538	0.046545	2.8378	-2.0055	-0.84649	0.25234	0.11294	-0.062231	-0.013333	0.0062702
2.8122	-4.0961	0.26777	2.6075	-1.8448	-0.34217	0.16481	0.0227	-0.14335	0.0083656	0.0032074
0.94479	-3.2178	0.30827	1.7245	-1.3828	0.12488	0.25694	-0.098144	-0.39582	0.071199	0.0035065
6.4487	-5.3605	-0.84655	3.2637	-3.1073	-0.95208	-0.2032	0.57781	0.71646	-0.0885	0.03853
2.0615	-3.7747	0.17179	1.8436	-1.7997	-0.78312	-0.17489	0.11307	-0.24309	0.03718	-0.0036059
1.9685	-3.6152	0.54768	2.4412	-1.8742	-0.14909	-0.11898	-0.069553	-0.30068	0.11304	0.012336
1.7571	-3.9895	-0.26598	1.2688	-1.0739	-0.31205	-0.018211	-0.0062764	-0.37488	0.014106	-0.01923
-2.2816	-1.4528	0.16569	-0.47875	0.090958	0.10264	-0.11216	-0.055785	0.024044	-0.020715	-0.0029993
-2.0335	-0.94141	0.49332	-0.21086	0.085428	-0.054842	-0.1165	0.074793	0.00016599	-0.0027747	0.00051252
-2.189	-1.283	0.086736	-0.30402	-0.0060247	0.032123	-0.098747	0.053353	-0.010386	-0.014926	-0.0032781
-0.39073	-2.2716	-0.055845	0.9434	-0.60332	-0.15419	0.15023	0.040174	-0.16566	0.011223	-0.0015287
-0.93372	-2.2524	0.079922	1.0921	-0.41247	0.10617	0.15815	-0.10296	-0.16515	0.012763	-0.0013986
-2.2955	-0.95133	0.39412	-0.014917	0.074573	-0.044169	-0.13487	0.024631	-0.0071547	0.0019215	0.00052623
-0.50013	-2.2341	0.12578	1.9027	-0.74613	0.042943	0.22405	-0.1286	-0.43075	0.047236	-0.013984
-0.093892	-2.4263	0.22651	1.5453	-0.74994	0.039772	0.11418	-0.057002	-0.30685	0.031382	-0.0074854
-1.5941	-1.1932	-0.26021	-0.59893	-0.21474	0.07972	-0.084609	-0.10151	0.030849	0.030805	0.011238
-2.36	-0.88998	0.66737	-0.099886	0.039492	0.10808	-0.061175	-0.013305	0.029313	-0.023502	-0.0034149
-2.1965	-0.90559	-0.0029624	-0.1812	0.064394	0.14789	-0.050835	0.023814	-0.00075862	-0.017202	-0.003132
-1.8204	-1.3595	0.47231	-0.084482	0.040737	0.0089153	-0.037077	-0.038315	0.002226	-0.0031327	-0.00022746
-0.53659	-1.6076	0.098254	-1.3975	-0.28002	0.074533	0.033407	0.14442	-0.066957	-0.05126	-0.017265
1.2634	-1.1011	-0.68346	-1.8257	-0.099507	0.015587	0.024017	0.23246	-0.073359	-0.0094793	-0.0070854
-0.34045	-1.875	-0.04344	0.80768	-0.53323	0.12559	0.26617	-0.11204	-0.14291	-0.0077673	-0.0060113
-2.44	-1.2033	0.33936	-0.23235	0.05172	0.083229	-0.10198	-0.041251	0.041859	-0.021902	-0.002142
0.65477	-2.9619	0.06006	1.4211	-1.107	0.13716	0.41718	-0.097393	-0.34712	0.00077259	-0.0098677
-0.039979	-2.2522	0.26444	1.0071	-0.53476	0.12412	0.13968	-0.14147	-0.28848	0.028901	-0.0066916
0.52988	-2.7227	-0.088462	1.3147	-0.65953	0.19809	0.33494	-0.16135	-0.28199	0.021264	-0.0050737
-0.57096	-0.58537	0.83173	-0.70419	-0.10962	-0.0684	0.09388	-0.10643	0.045021	-0.025552	-0.008446
-2.3113	-1.1497	0.4545	-0.30784	-0.11644	0.05853	-0.059889	-0.043319	0.033943	-0.042504	-0.0089655
-1.7899	-1.2193	0.68175	-0.45775	0.15687	0.035872	-0.067571	0.021622	0.0079944	-0.006938	-0.001643
-0.65427	-2.3551	0.037663	0.87501	-0.51258	0.19605	0.2286	-0.14645	-0.21603	0.0020349	-0.0072721
0.44934	-3.137	0.26928	1.4779	-0.80068	0.092418	0.30051	-0.17151	-0.45358	0.042047	-0.01108
-1.0548	-1.1231	-0.017548	-0.68939	0.29663	0.011217	-0.04259	-0.11873	0.071597	0.009356	0.0027388
0.90367	-1.1552	1.0499	0.2496	-0.46629	0.22069	0.36154	-0.018685	-0.12143	-0.023418	-0.0094993
1.442	-3.4766	0.16133	0.72874	-1.2353	0.36202	0.56481	0.025044	-0.21148	-0.087366	-0.022905
4.1612	-4.5664	-0.52609	1.8764	-1.8008	-0.67025	0.42953	0.25561	0.070186	-0.027438	0.013093
-0.91316	-2.5977	0.49884	1.3188	-0.42498	-0.047682	0.11525	-0.12045	-0.4153	0.046201	-0.010837
3.0429	-4.4325	-0.01744	2.2687	-2.0905	-0.61282	0.38627	0.15175	-0.081039	-0.010413	0.0074015
-0.30217	-2.1982	0.41264	0.52323	-0.55853	0.023403	0.19687	-0.11863	-0.11171	-0.0098759	-0.0059193
0.88068	-2.9394	-0.46975	1.7524	-1.1889	-0.71694	0.22862	-0.0052137	-0.44156	0.054202	-0.011805
0.37049	-2.9051	0.27913	1.7904	-1.1359	-0.048481	0.27972	-0.042736	-0.28317	0.023587	-0.0024789
-0.31619	-2.7943	0.20182	0.97982	-0.59575	0.0049735	0.10945	-0.033499	-0.28791	0.025855	-0.0060721
1.4237	-3.5414	0.27512	2.351	-1.412	-0.29803	0.46947	-0.044847	-0.37526	0.025534	-0.0054088
-1.2972	-2.306	0.48361	1.2094	-0.4698	-0.01264	0.15057	-0.10454	-0.36229	0.035636	-0.0080389
-0.22699	-3.1197	0.33995	1.4034	-0.72777	-0.0023357	0.25588	-0.12955	-0.37404	0.032725	-0.0077069
0.30157	-2.6468	-0.13079	1.2861	-0.71082	0.31073	0.39539	-0.074327	-0.29234	0.00015217	-0.0080602
0.6847	-2.9934	-0.41975	1.4979	-1.0139	-0.57017	0.25287	-0.060315	-0.50903	0.068451	-0.012023
3.6563	-4.4113	-0.19771	2.4324	-2.009	-0.6777	0.65404	0.15323	-0.041811	-0.025106	0.0077137
-0.79711	-2.0864	-0.4036	-0.84219	-0.12995	0.24519	-0.24512	-0.018087	0.02642	0.054773	0.020743
4.0617	-4.4089	-0.68819	1.1705	-1.5071	0.31132	0.17711	0.47853	0.15309	-0.037233	0.025136
9.946	-7.4449	-4.7946	1.0124	-1.3787	2.7287	-0.85587	1.2855	0.064281	-0.0079716	-0.073847
3.6139	-5.1992	-0.26315	1.493	-2.2738	-0.40622	-0.0078567	0.14287	-0.11055	0.07544	0.025802
-2.9136	-1.809	0.69093	-0.37737	0.22459	0.019131	-0.2346	-0.048831	-0.033951	0.0060216	-0.00071614
-2.7834	-1.5303	0.51536	-0.21178	0.13198	-0.080884	-0.2093	-0.01821	0.016236	0.0011601	0.0016785
-1.1967	-2.0358	0.26072	1.1651	-0.33726	0.18035	0.18766	-0.092159	-0.31863	0.028075	-0.006198
-2.887	-1.0221	0.53481	0.04352	0.21901	0.088931	-0.14936	-0.041341	0.045713	-0.0041872	0.0029231
-0.85969	-2.2538	0.89108	0.74419	-0.67545	0.078066	0.23313	-0.10574	-0.26257	-0.02044	-0.017078
-2.5244	-0.95832	0.39289	-0.11269	0.10131	0.19346	-0.087382	0.023524	0.033625	-0.019808	-0.00026391
-0.13249	-2.4068	0.23055	0.41958	-0.50173	0.12963	0.24126	0.015673	-0.13408	-0.020535	-0.0068994
-2.0198	-1.0289	0.63395	-0.54426	-0.31331	0.23629	0.04178	-0.11622	0.065717	-0.081	-0.01753
-2.2298	-1.5411	-0.17252	-0.51069	0.25314	0.10302	-0.14376	-0.071709	0.024455	0.0015997	0.0011634
-1.7149	-1.0509	-0.061683	-0.40952	0.0097814	0.083148	-0.032811	0.063064	-0.022427	-0.016504	-0.0045567
-1.5597	-1.3326	0.070148	-0.7004	-0.20536	-0.067343	-0.041129	-0.029472	0.00060193	-0.030191	-0.010092
-2.3179	-1.1471	0.16819	-0.28497	0.092195	0.14934	-0.079181	-0.015436	-0.0077291	-0.018079	-0.0045688
-2.1772	-1.198	0.052497	-0.26717	0.0062232	0.051281	-0.081915	0.034335	-0.0066808	-0.017545	-0.0036227
-1.2428	-1.7529	0.084697	-0.95551	-0.45539	-0.20719	-0.026933	0.10149	-0.067014	-0.052389	-0.019577
-2.6757	-1.3237	0.35756	-0.142	0.18312	0.040381	-0.16766	0.038909	-0.0061447	0.00018741	0.0012391
-1.9123	-1.0865	0.15498	-0.44334	0.090858	0.19017	-0.063272	0.11363	-0.021722	-0.017898	-0.0031345
-0.68725	-1.7239	0.28694	1.2001	-0.29358	0.056431	0.20124	-0.05902	-0.26864	0.036028	-0.0023191
-0.77005	-1.9985	0.11048	1.0818	-0.086238	0.09289	0.13812	0.013118	-0.22233	0.044524	0.0044415
0.057634	-2.8669	0.17697	1.8432	-1.0098	-0.26333	0.28582	-0.16152	-0.32751	0.033557	-0.0065588
4.1701	-5.0842	-2.5111	1.4025	-3.0405	-2.4737	-0.50469	0.76982	0.73559	-0.058485	0.030931
4.0749	-4.5935	0.050651	2.8112	-2.5063	-0.78427	-0.39789	0.15736	0.21866	-0.010781	0.020134
6.2076	-5.9554	-2.3883	2.2189	-2.4101	-0.73331	-0.57724	0.75279	0.61071	-0.19428	-0.038555
9.5376	-7.0664	-3.1837	1.6409	-2.4328	2.296	-0.69379	0.84603	0.32745	0.27278	0.10706
2.4409	-3.8538	0.51004	1.9685	-2.2321	-0.10147	-0.02846	0.095904	0.050059	0.11543	0.051268
0.42408	-1.1947	0.54509	0.92192	-0.73733	-0.00299	0.23694	0.015503	-0.057857	-0.012413	-8.1681e-05
-0.094327	-1.3793	-0.76346	0.48689	-0.16468	0.019205	0.14655	0.064764	-0.01307	0.0048451	0.0046102
-2.2779	-0.15471	-0.36312	0.22873	0.14626	0.043815	-0.024414	-0.011718	0.024674	0.0019689	0.0016215
-1.3821	-0.59992	0.126	-0.28073	-0.01414	-0.16925	-0.036832	0.075405	-0.05197	0.0055293	-0.0033239
-1.5285	-0.83001	-0.34064	-0.41408	-0.032062	0.0039634	-0.0054647	-0.057192	-0.015152	-0.0080038	-0.0054787
-1.2799	-1.1878	0.13609	1.1097	-0.11271	0.10354	0.13651	-0.045001	-0.092711	0.018497	0.0039506
0.20769	-1.1148	0.27196	0.50219	0.29231	-0.029759	0.13008	-0.12144	0.015871	0.045256	0.01234
-0.345	-0.59628	-0.1023	0.34958	-0.30774	-0.14737	0.13698	0.0085936	-0.065872	0.0054063	-0.0024373
-1.0182	0.31059	-0.58627	0.016366	-0.22706	-0.12823	0.060158	0.12193	-0.064309	0.0045488	-0.002926
-0.93235	-0.055994	-0.80829	-0.23223	0.19904	-0.071688	0.0036737	0.041045	-0.040873	0.017233	-0.00098518
0.18163	0.34804	0.05103	-0.34743	0.22633	-0.12241	-0.00024115	0.090195	-0.041193	0.015476	-0.0012321
-0.75831	-0.2306	-0.18744	-0.38353	-0.028346	-0.15875	0.020977	-0.036009	0.0065961	0.0035793	-0.0021517
0.42011	-0.00132	-0.352	-0.6056	-0.087314	-0.3999	-0.0059046	-0.011163	-5.8926e-05	0.014452	-0.0023121
0.996	-0.83577	-0.40593	0.16074	0.024134	-0.20484	0.10208	0.12374	0.017355	0.016078	0.0066078
1.493	-0.40811	-0.51971	0.15109	0.028285	-0.15409	0.1312	-0.019658	-0.032938	0.018492	0.0010912
2.3334	0.10226	-0.32275	-0.51558	-0.20277	-0.68124	-0.038254	0.17816	-0.09108	0.023097	-0.0049175
1.1138	0.44531	-0.94328	-0.19464	-0.75488	-0.26934	0.15551	0.1494	-0.15724	0.020683	-0.0031235
1.9863	0.48261	-0.93075	-0.57594	-0.579	-0.49465	-0.11827	0.18647	-0.0014813	0.01194	0.0027897
1.2162	-0.18319	-0.80339	-0.095634	-0.09649	-0.92048	-0.048479	-0.02517	-0.11905	0.048475	-0.006262
1.5973	0.38778	-1.145	-0.43812	0.1585	-0.29004	0.0074603	0.064725	-0.12389	0.023457	-0.006501
2.6052	0.071009	-1.1173	-0.38726	-0.45161	-0.67095	-0.027815	0.35315	-0.0036278	0.00012323	0.0006608
2.3953	-1.2416	-2.2637	-1.5235	-0.55969	-0.65822	-0.062891	0.1413	-0.19369	0.039707	-0.0081376
1.2454	-0.077902	-0.91639	-0.59519	-0.54585	-0.31264	0.069647	0.29365	-0.009933	-0.0058973	0.0039064
3.6303	-0.33396	-1.1234	-0.76796	0.45739	-0.88815	-0.2055	0.25727	-0.11684	0.023318	-0.005631
1.367	-0.48737	-1.9477	-0.78896	-0.0032752	-0.38856	0.01957	0.05279	-0.25202	0.043439	-0.011355
1.9939	0.25369	-1.7039	-0.70321	-0.65339	-0.37424	0.039922	0.23627	-0.10863	0.024423	0.0050787
3.0425	0.14102	-2.1253	-0.95718	-0.20721	-0.42607	-0.14798	0.21305	-0.035137	-0.0041713	-0.0058624
2.3002	-0.15282	-1.4094	-0.87517	-0.27528	-0.65188	-0.12204	0.22829	-0.039789	0.0080989	-0.0037118
3.2171	-0.50809	-1.4008	-1.0654	-0.659	0.18487	0.18336	-0.020154	-0.10647	0.018568	0.00075066
3.0685	0.12372	-1.7038	-0.67139	-0.38399	-0.63313	0.027163	-0.05961	-0.084537	0.025605	-0.0072593
3.8302	0.18741	-1.8373	-1.1868	-0.49636	-0.14265	-0.017167	0.022984	-0.058529	0.021208	0.00046306
3.6745	-0.5159	-0.9984	-1.6653	-0.14636	-0.34266	-0.088542	0.34164	-0.10497	0.0080266	-0.0011588
2.8284	-1.2952	-1.1977	0.33913	-0.71161	-0.2798	0.25158	0.097812	0.035176	-0.0063084	0.0041919
2.7154	0.37568	-1.4451	-1.0171	-0.90731	-0.15847	0.16053	-0.017137	-0.04195	0.022565	0.002781
3.576	0.23378	-2.2377	-1.3321	-0.96212	-0.084039	0.090324	0.15775	-0.045334	0.039824	0.012064
4.3458	0.29869	-1.2158	-0.38656	-0.19532	-0.093619	-0.20244	-0.020996	-0.091588	-0.018951	-0.010186
2.2755	-0.36219	-1.5209	-1.2847	-0.12854	-0.59572	-0.10421	-0.063379	-0.13713	0.033223	-0.010784
4.1301	-1.8443	-2.168	-0.45902	-0.2704	-0.095009	0.10856	0.40898	-0.015262	-0.0184	0.0010208
1.765	0.12024	-1.3856	-0.14456	-0.13975	-0.95498	-0.096	0.040104	-0.051091	0.018629	-0.0093143
3.3778	0.64569	-1.1292	-0.99902	-0.74019	-0.27643	-0.057517	0.060417	-0.090927	0.032847	0.0042382
3.8021	0.24128	-2.2878	-0.96668	-0.2478	-0.69699	-0.11127	-0.03327	0.0053574	0.0018396	-0.0084076
2.8131	0.09109	-1.1943	-0.95751	-0.21922	-0.13438	-0.0028338	0.2815	-0.086456	0.0049697	-0.00029056
2.5495	-0.96759	-2.3562	-1.4138	-0.13997	-0.2176	0.045868	0.18425	-0.12601	0.020467	-0.0057012
2.2042	-0.64853	-1.8629	-1.1476	-0.65084	-0.4582	0.068275	0.13948	-0.11671	0.022987	-0.0046768
1.6154	0.36173	-1.2289	-0.56149	-0.39026	-0.3324	0.077876	0.06099	-0.034205	0.013115	-0.0021394
3.4944	0.43086	-1.2307	-1.5037	-0.67368	-0.077998	0.081352	0.01198	-0.062933	0.020323	0.00050918
3.3225	0.075781	-1.2547	-1.2684	-0.95409	-0.42179	-0.012944	0.072865	-0.034751	0.028077	0.0043125
1.9986	-0.28806	-1.3923	-0.80878	0.028668	-0.49543	-0.096155	0.11771	-0.096968	0.015354	-0.006484
3.2639	-0.25032	-2.3011	-1.628	-0.29037	-0.47246	-0.053281	-0.026765	-0.20561	0.041903	-0.011513
2.9303	-0.042351	-1.2996	-1.2922	-0.63676	-0.36189	0.062473	-0.046569	-0.16175	0.033758	-0.0057733
2.9754	0.096894	-1.4052	-0.9757	-0.64636	-0.89786	-0.060784	0.011659	-0.054977	0.026961	-0.0058432
3.946	0.23499	-1.7884	-1.4961	-0.98015	-0.16918	0.15873	0.013468	0.001681	0.017322	0.0040473
3.1545	-0.34359	-1.3953	-1.2286	-0.21559	-0.45894	-0.042816	0.30193	-0.0043626	0.0013816	0.0018119
3.2006	-0.59083	-1.9267	-1.2437	-0.8116	-0.56316	0.14681	-0.046974	-0.1851	0.036538	-0.0098787
1.3072	-0.37851	-1.121	-0.77353	-0.14281	-0.28619	0.028892	0.24105	-0.10455	0.015292	-0.0038032
1.5225	0.41629	-0.58187	-0.72502	-1.1248	-0.085019	0.2117	0.084042	0.0073159	-0.0091384	0.0019821
4.1021	-0.40311	-2.6073	-1.9435	0.11198	-0.027513	0.053999	0.050033	-0.084475	0.017211	-0.0068746
2.4949	0.20302	-1.1951	-0.95698	-0.52453	-0.49179	0.058512	0.0028037	-0.18284	0.034785	-0.0079436
2.1143	-0.22948	-1.6579	-0.83656	-0.60805	-0.66315	0.078923	-0.011657	-0.16124	0.036683	-0.0088384
6.9047	-2.6944	-3.1659	-1.4427	0.01265	0.41144	0.13978	0.14261	0.028073	-0.033121	-0.002236
-1.7181	-1.4142	0.29125	-0.31315	0.17643	0.17362	-0.032573	-0.0056484	-1.2982e-05	-0.0060084	0.00028957
-1.5371	-0.18783	0.15808	0.089965	0.31661	-0.11382	-0.070419	0.099598	-0.01712	0.021618	0.0037689
-1.1437	-0.01171	-0.015518	0.0035464	0.17844	-0.029821	0.0018104	0.061149	0.014559	0.0062605	0.002377
0.9904	0.03032	0.43661	0.14394	-0.6445	0.094726	0.26218	0.05803	-0.1528	-0.0070859	-0.0076178
-1.2455	0.32257	-0.25943	0.22648	0.32911	-0.06189	-0.0046314	0.00066109	0.02239	0.015974	0.003204
-1.5679	0.65614	-0.47923	0.42482	-0.060532	0.14885	0.12276	-0.018755	0.020787	-0.0050985	0.0005167
-0.73798	-0.22695	-0.44526	1.4565	0.011968	0.13703	0.22362	-0.065112	-0.091356	0.020325	0.0023714
-1.833	-0.039369	-0.70153	0.19784	0.31685	0.10483	0.0039433	0.008781	0.010609	0.010807	0.003606
-2.5419	-0.088218	0.16055	0.47522	0.28082	0.03825	-0.063411	0.018213	0.036206	0.0094356	0.0054964
-2.3486	-1.292	-0.029158	-0.21973	0.10186	-0.072485	-0.15434	0.07804	0.0007099	0.00095472	0.0024844
-2.8057	-1.151	0.77954	-0.034735	0.10457	0.18007	-0.10813	-0.020517	0.035676	-0.028412	-0.0030905
-2.3685	-0.84528	1.4829	-0.27666	-0.24213	0.36909	0.074713	-0.039936	0.05313	-0.10241	-0.021546
-2.8534	-1.1338	0.85436	0.033475	0.10991	0.20732	-0.10101	-0.036822	0.042652	-0.029627	-0.0025586
-0.88974	-1.8484	1.3177	0.63072	-0.42655	0.10381	0.22098	-0.097952	-0.13885	-0.019973	-0.009977
-1.0291	-1.6369	1.4036	0.70585	-0.42019	0.087045	0.22342	-0.11661	-0.17237	-0.014776	-0.01158
-0.70796	-1.6526	1.2456	0.61833	-0.35296	-0.02121	0.1595	0.017291	-0.12309	-0.002573	-0.0037888
-1.9195	-1.0511	0.47438	0.60742	0.058746	0.010846	0.0041619	-0.038839	-0.11355	0.026335	0.0015527
-1.4887	-1.4914	1.028	0.67498	-0.22362	0.010745	0.10373	-0.080557	-0.20983	0.015861	-0.0067369
-0.30328	-1.7422	1.3039	0.85291	-0.57858	0.087876	0.28393	-0.044762	-0.15721	-0.018358	-0.0088546
-2.1106	-1.2068	1.0076	0.2371	-0.18211	0.25978	0.069665	-0.062929	-0.058606	-0.042733	-0.011752
-2.1975	-1.3158	0.62346	0.12805	-0.20738	0.16933	0.022076	-0.046443	-0.16338	-0.023241	-0.011715
0.44854	-1.6843	1.6302	0.73144	-0.5991	-0.10109	0.25701	0.021009	-0.072664	-0.014119	-0.0028053
1.1335	-1.6015	1.8018	0.59226	-0.67934	-0.15083	0.31423	0.036935	-0.062086	-0.018873	-0.0035116
0.62982	-1.7021	0.99194	1.0173	-0.91775	-0.17367	0.28889	0.044184	-0.11906	-0.015816	-0.0039132
0.82697	-1.6001	1.2176	1.0386	-0.82677	0.012101	0.37881	-0.02928	-0.14019	-0.019018	-0.0070737
1.6904	-1.8089	1.6619	0.91347	-1.1676	-0.093001	0.44833	0.033276	-0.048485	-0.050344	-0.0079035
1.929	-1.9298	1.7893	0.81687	-0.87715	-0.13871	0.36258	0.055009	0.034929	-0.033986	0.0013491
-0.54746	-1.5194	0.94194	0.73655	-0.57377	-0.043662	0.21079	-0.033596	-0.15811	-0.0096777	-0.0076125
-2.7539	-0.69874	0.64011	0.17324	0.075313	0.17728	-0.066717	-0.00043524	0.040234	-0.025725	-0.0017385
-2.6072	-0.89798	0.21054	0.078443	0.12735	-0.0056288	-0.12563	0.048655	0.011501	-0.00073806	0.0019156
-1.4572	-0.74841	0.04104	-0.40737	-0.028867	0.044264	-0.005033	0.085836	-0.024065	-0.015898	-0.0046588
-1.9168	-0.96091	0.62391	0.66798	-0.20645	0.15745	0.082222	-0.016309	-0.084902	-0.012959	-0.004275
-1.6428	-0.71677	0.35018	0.53489	-0.029237	0.13559	0.067401	0.020729	-0.012297	-0.0058537	0.0014363
-1.911	-1.129	0.33352	0.58531	-0.032612	0.14654	0.03767	-0.021277	-0.069733	0.0027961	0.00015826
-1.8583	-1.2483	0.57165	0.44726	-0.14708	0.20549	0.068836	-0.014593	-0.084609	-0.016538	-0.0052156
-1.027	-0.7849	-0.14185	-0.29918	0.86252	-0.33422	-0.19448	0.052694	-0.021528	0.086761	0.016085
-1.6669	-0.92966	0.27739	0.47812	-0.12898	0.25243	0.098472	-0.015333	-0.02105	-0.019637	-0.0018688
-1.4946	-1.1091	0.11926	0.35432	-0.14828	0.2314	0.086815	0.056074	-0.0054862	-0.023484	-0.00070878
-2.6479	-0.53442	0.34806	0.25113	0.33004	0.07347	-0.11029	0.020467	0.018084	0.013419	0.0059425
-1.617	-1.048	0.28265	0.82623	0.018561	0.10764	0.076542	-0.051992	-0.15283	0.027446	0.00054622
-1.9741	-0.65531	0.067228	-0.018013	0.24834	-0.030898	-0.074327	-0.0086169	0.016007	0.015197	0.003863
0.67224	-0.30209	-1.2617	-0.88142	-0.077362	-0.10856	0.051646	0.10636	0.047594	-0.0028703	0.00020158
-1.9666	-0.63503	0.12988	-0.18648	-0.0047411	0.049147	-0.034688	0.05568	0.012244	-0.017762	-0.0030184
-2.3857	-1.3093	0.51089	-0.15848	0.10279	-0.057875	-0.12318	-0.072684	0.0075275	0.0016996	-0.00018732
-0.38487	-0.90304	-0.49812	-0.73451	-0.69891	-0.41817	0.064835	0.026346	-0.027262	-0.029691	-0.0072791
2.0041	-0.16739	-0.78677	-0.99662	-0.045602	-0.37593	-0.016131	0.11511	-0.16557	0.028475	-0.0046018
0.18338	-1.0803	-0.99664	-0.45802	-0.14625	-0.66932	-0.032708	0.083158	-0.13563	0.04678	-0.0024461
1.11	0.26909	-0.444	-0.63531	-0.35506	-0.088479	0.11677	0.057582	-0.089482	0.0062737	-0.0046808
2.0253	-0.28508	-1.484	-0.97208	-0.11174	-0.82878	-0.15652	-0.039193	-0.19103	0.036715	-0.015093
2.3871	-0.33505	-0.78995	-1.0453	-0.33042	-0.44769	0.017783	0.16557	-0.22035	0.029715	-0.0045664
1.4265	-0.50667	-1.4904	-0.63256	0.080638	-0.16154	0.13059	-0.13354	-0.092335	0.033648	-0.0039175
2.9524	0.39981	-0.96761	-0.86388	-1.0422	-0.60149	0.096645	-0.098878	-0.0039642	0.020382	0.00083055
2.7739	-0.22489	-1.3921	-0.52697	-0.041575	-0.62128	-0.045269	0.12901	-0.12166	0.019211	-0.0033862
1.8396	-0.55955	-1.1764	-0.90467	-0.78031	-0.39516	0.17285	-0.037019	-0.11776	0.012332	-0.0089291
2.334	-0.10654	-0.85786	-0.75657	-0.77686	-0.83601	0.020464	0.052105	-0.14726	0.032047	-0.0084132
2.867	0.53246	-0.67408	-0.68192	-0.94734	-0.68028	0.03971	0.10448	-0.086385	0.022038	-0.002049
2.4451	0.15339	-1.1005	-0.87989	0.061636	-0.42483	-0.0029508	-0.074729	-0.0088408	0.019776	-0.0042775
1.7338	-0.73409	-1.9604	-0.88027	-0.57045	-0.97918	-0.028963	0.097168	-0.089155	0.033005	-0.0065767
3.1866	0.1196	-1.1867	-1.0101	-0.93109	-0.37512	0.13381	0.14014	0.012553	0.0013302	0.0037966
3.2837	-0.70815	-1.4728	-1.4275	-0.28162	-0.57542	-0.079413	0.36201	-0.09512	0.011964	-0.001321
1.8592	-0.30771	-1.6561	-0.32868	-0.45012	-1.1838	-0.040256	0.025436	-0.095878	0.041296	-0.0078097
3.4818	0.58429	-0.39846	-1.3517	-1.4897	-0.097709	0.16555	0.28311	-0.025435	0.0011815	0.0097531
3.3624	-1.0664	-2.4303	-1.5021	0.779	-0.71105	-0.22734	0.18809	-0.20171	0.030669	-0.015631
1.5293	-0.31061	-1.4925	-0.35545	-0.33174	-0.72113	0.010266	0.16929	-0.15685	0.032487	-0.0062461
2.699	0.021944	-2.0576	-1.2677	-0.78822	-0.68927	-0.016258	0.013529	-0.07011	0.037382	-0.00090759
3.6108	0.059669	-2.6034	-1.2482	-0.06195	-0.90152	-0.11709	-0.13743	0.0004032	0.014082	-0.011886
3.7158	-0.93278	-2.0251	-1.7674	0.0849	-0.63035	-0.20195	0.20779	-0.2304	0.025365	-0.014657
2.5937	-0.84362	-1.7799	-1.6196	-0.37424	-0.39788	0.058128	0.17702	-0.18753	0.026685	-0.0084964
3.2593	-0.27913	-1.9259	-1.278	-0.69269	-0.7105	0.063394	-0.018585	-0.097081	0.03106	-0.0061106
3.7166	-0.028134	-1.8106	-1.6153	-0.78112	-0.20358	0.068605	0.05311	-0.12326	0.033461	-0.00056157
2.9785	-1.008	-1.5066	-1.8135	0.44155	-0.19726	-0.02441	0.13029	-0.16351	0.040103	-0.0041666
2.1461	-0.68574	-1.8636	-1.211	-0.19245	-0.66968	-0.039294	0.21535	-0.078694	0.02466	-0.003567
4.3121	-0.81982	-1.9071	-0.97497	-0.76315	-0.65493	0.10481	0.14463	-0.020426	0.0104	-0.00040304
1.0454	-0.83227	-0.33872	-0.68937	-0.048014	-0.68861	-0.11096	0.26105	-0.085868	0.028681	0.001302
2.2953	-1.9391	-0.78143	-0.53927	-0.26855	-0.24008	0.1314	0.36233	-0.017752	0.0023941	0.0047513
-0.25327	-0.57637	-0.59026	-0.80264	-0.29141	-0.034081	0.089068	0.031239	-0.028288	-0.017775	-0.0066359
2.1325	-0.20609	-1.2705	-1.37	0.044837	-0.070346	0.070839	0.01104	-0.093204	0.019489	-0.0062541
0.59758	-0.4794	-1.2425	-0.76425	0.13369	-0.31278	-0.0014706	0.044659	-0.094052	0.031952	-0.0036481
2.9811	0.35122	-0.37699	-1.5179	-0.049264	-0.13365	0.065775	-0.080543	-0.004357	0.0086334	-0.0042457
1.2805	-0.37079	-1.5516	-0.63451	-0.21928	-0.41341	0.080343	-0.0088333	-0.1236	0.030829	-0.0063308
2.6086	0.091906	-1.3439	-0.93842	-0.52596	-0.089555	0.1022	0.050649	-0.12981	0.023606	-0.002575
1.5625	-0.47297	-0.48057	-1.2492	0.045055	-0.42606	-0.011911	0.091203	0.08413	0.0086408	0.0016424
2.9081	0.89672	-0.85181	-1.2267	-0.96159	-0.29453	0.042783	0.060314	-0.17033	0.041257	0.0048792
1.9368	-0.73569	-1.0494	-1.2488	0.18823	-0.3636	0.0034874	0.10664	-0.090651	0.034546	-0.00068904
0.89925	0.20092	-0.91067	-0.37223	0.11197	-0.50037	-0.032634	0.001088	-0.022271	0.023989	-0.0029852
2.3954	-0.18015	-1.0318	-1.299	-0.023298	-0.10074	0.10115	-0.030939	0.036845	0.0041168	-0.0010518
3.4919	-2.3883	-1.4994	-0.57377	-0.78073	0.34578	0.49794	-0.063936	0.10559	-0.049934	-0.00069851
-0.57805	-0.016274	0.09862	0.0042205	0.61972	-0.33534	-0.12235	0.1331	-0.048618	0.04831	0.0055153
-0.31671	0.45225	-0.16195	-0.027329	0.39405	-0.14567	-0.038278	0.11361	-0.0044761	0.01609	0.0014079
-1.0266	0.40246	-0.08301	0.39937	0.51266	-0.23021	-0.065671	0.065372	-0.0091423	0.029674	0.0036133
-0.28591	-0.13198	-0.10219	1.4407	0.19823	-0.053893	0.15491	-0.04402	-0.075962	0.031487	0.0041485
-1.2018	0.51243	0.16621	0.62727	0.95221	-0.34762	-0.16382	0.049296	0.012828	0.048204	0.0073723
-1.978	0.41402	-0.1692	0.69903	0.48653	-0.06628	-0.046281	0.074741	0.034869	0.019996	0.0068399
0.65382	-0.56941	0.57426	1.7003	0.222	-0.18024	0.19054	-0.087892	-0.18816	0.065415	0.0054617
-1.4177	0.42576	0.29834	0.42572	0.61375	-0.11756	-0.074502	0.052315	0.0023957	0.033844	0.0064764
-0.74338	0.67031	0.91452	0.20736	0.5935	-0.10072	-0.052361	0.021394	0.026784	0.027284	0.005568
-1.5531	0.15379	0.28758	0.57663	1.1272	-0.36342	-0.21977	0.076739	-0.0020724	0.080244	0.01552
-0.18873	-0.16012	0.48044	1.1425	0.098709	0.0066396	0.16578	-0.046174	-0.11953	0.03224	0.00215
-1.9623	0.398	0.07909	0.54546	0.39492	0.028551	-0.020935	0.026056	0.019409	0.015357	0.0047347
-2.0303	0.2798	-0.095297	0.6321	0.48965	-0.083684	-0.05883	0.018415	0.03806	0.024876	0.0072448
-1.6349	0.35394	0.36331	0.41717	0.47139	-0.1044	-0.057457	0.021081	0.013868	0.02783	0.0058536
-1.4722	0.15221	0.32072	0.47879	0.84581	-0.26922	-0.15375	0.058932	0.017041	0.057284	0.012146
-2.1146	0.2675	0.2703	0.53308	0.38169	-0.0087387	-0.043415	0.023499	0.035905	0.017184	0.0064008
-1.9328	0.25959	0.066049	0.45344	0.42731	0.070725	-0.026533	0.026579	0.0058395	0.016152	0.0043111
-1.3789	0.41606	0.52263	0.29529	0.51584	-0.019512	-0.041903	0.040551	0.015799	0.023938	0.0057047
-1.8541	0.10099	0.011299	0.38799	0.34912	-0.053471	-0.045363	0.04297	0.015842	0.018434	0.00524
-1.6602	0.13191	0.14955	0.41233	0.5896	-0.18478	-0.10443	0.056013	0.0098791	0.039086	0.0082311
-1.7142	0.31204	0.28065	0.38183	0.39957	0.04272	-0.01838	0.0077199	0.026224	0.015187	0.0047637
-2.0184	0.11241	0.086424	0.54814	0.65312	-0.096057	-0.099171	0.014427	0.0085812	0.044141	0.010016
-2.0796	-0.026156	-0.0064457	0.45301	0.52384	-0.0585	-0.086327	0.026916	0.010212	0.032899	0.0080852
-2.4027	-0.054597	-0.0084172	0.44123	0.27952	0.043001	-0.051514	0.037521	0.030329	0.0080658	0.0048974
-1.9375	0.23002	0.10259	0.51276	0.36167	-0.015835	-0.02961	0.00026181	0.051073	0.014804	0.0063759
-1.9949	0.055586	-0.30138	0.43631	0.3717	-0.03412	-0.038961	0.015224	0.013975	0.021377	0.0054612
-2.1283	-0.10901	0.084708	0.46812	0.54675	-0.0026104	-0.084288	0.030469	0.013629	0.033544	0.0094736
-1.8424	0.061833	0.26172	0.5384	0.92739	-0.16806	-0.15971	0.053509	-0.0055182	0.065372	0.0138
-2.1085	-0.075579	0.21265	0.4776	0.62472	-0.15907	-0.12543	-0.0031854	0.02176	0.051294	0.012308
-2.38	-0.34728	0.056417	0.36327	0.30605	0.10334	-0.053688	-0.0045814	0.012254	0.011754	0.0047363
-2.2543	-0.1309	0.21389	0.46346	0.53105	-0.051437	-0.10645	0.034045	0.030016	0.034875	0.010544
-2.2903	-0.0087248	-0.12648	0.47207	0.2668	0.053414	-0.03224	0.051002	0.028078	0.0078806	0.0049816
-2.5114	-0.10514	-0.035637	0.45482	0.17355	0.14274	-0.014143	-0.01264	0.036104	-0.0029223	0.0031373
-2.1812	-0.090908	0.12943	0.47529	0.49949	-0.1005	-0.10169	0.0074556	0.036265	0.033533	0.0097238
-2.1183	-0.010172	0.039879	0.48364	0.51458	-0.072702	-0.088452	0.014727	0.020062	0.032311	0.0082062
-2.2183	-0.041995	-0.0075314	0.50173	0.36243	-0.048236	-0.061231	-0.0081886	0.045231	0.021444	0.0075063
-2.2775	-0.12704	0.22957	0.45051	0.54032	-0.048059	-0.10706	0.017007	0.014743	0.037327	0.0097397
-1.3959	-0.87925	0.13806	1.1167	-0.016728	0.20112	0.14715	-0.062538	-0.11907	0.019895	0.0021625
-2.0754	-0.2064	0.11461	0.24105	0.24188	-0.010923	-0.048633	0.0091379	0.023608	0.011029	0.0038782
1.3441	-1.0301	-0.55507	-1.1849	-0.46126	-0.34411	0.10698	0.13011	-0.088338	-0.0037226	-0.0084754
1.5373	-1.4521	0.24971	-1.2616	-0.12508	-0.61412	0.080268	-0.017908	-0.056663	0.034835	-0.0039056
0.99444	-0.41125	-0.2135	-0.7957	0.080117	-0.29956	0.028655	-0.0077656	-0.099216	0.030978	-0.0045912
3.3833	-0.37109	-1.7899	-0.93824	-0.18016	-0.58787	-0.0028169	-0.059469	0.033159	0.011459	-0.0043994
1.9243	-0.91597	-1.0868	-1.1663	-0.22571	-0.70759	-0.028497	0.17649	-0.18421	0.040132	-0.0060167
1.5071	-0.19359	-0.97973	-0.54838	-0.66089	-0.77011	0.062288	0.0056045	-0.16304	0.034269	-0.0092889
2.5359	-1.6812	-2.0883	-2.1433	-0.789	-0.23917	0.0017594	0.66109	-0.11353	-0.0054181	-5.3225e-05
2.5869	-0.4543	-1.563	-1.0489	0.00073787	-0.49092	-0.028265	0.030557	-0.19306	0.036144	-0.0086155
0.72758	-0.49522	-0.84411	-0.65774	-0.1109	-0.65172	-0.019145	-0.01725	-0.1128	0.041643	-0.0053182
2.1895	-0.16022	-0.89189	-1.0942	-1.1255	-0.67035	0.091949	0.15988	-0.1097	0.011477	-0.0053044
2.754	-0.1136	-1.341	-0.93992	-0.12729	-0.67144	-0.018072	-0.017466	-0.06586	0.028508	-0.0050076
1.4106	-1.2072	-1.8132	-1.2025	0.18972	-0.4384	-0.022511	0.080701	-0.11759	0.04551	-0.0033354
2.5462	-1.9691	-1.1958	0.72684	-0.54835	-0.41577	0.23025	0.27983	-0.039254	0.010648	0.0064121
1.1721	-0.46526	-0.91214	-1.245	-0.60048	-0.10913	0.16087	0.044787	-0.091357	-0.011135	-0.0090226
2.0548	-1.1905	-1.8487	-1.3966	-0.37656	-0.68961	-0.064319	0.45728	-0.037352	0.0085729	-0.0011169
1.8448	-0.91233	-1.5557	-0.97267	0.15305	-0.63471	-0.057936	0.11477	-0.07337	0.039747	-0.0026508
1.771	-0.31064	-0.93469	-0.70665	-0.505	-1.1124	-0.065973	0.092472	-0.12265	0.040623	-0.0079718
2.2406	0.025896	-1.1949	-0.88355	0.14987	-0.61559	-0.080367	0.089653	-0.083978	0.028442	-0.0063127
1.2837	-1.0813	-1.1972	-0.37991	0.092017	-0.5956	0.028574	-0.13064	-0.021571	0.05092	0.0023715
2.5385	-0.91749	-1.0462	-0.85268	-0.70868	-0.32796	0.2068	0.059372	-0.11415	0.0069517	-0.0077885
2.969	-0.37342	-0.83517	-1.3882	-0.24731	-0.62099	-0.068699	0.26003	-0.042011	0.012304	-0.0019375
1.7521	-1.3318	-2.3409	-1.3651	0.0070641	-0.45018	0.029863	-0.017909	-0.1278	0.042981	-0.0056004
2.7993	-0.57622	-0.91433	-0.55627	0.11624	-0.29863	0.10713	-0.041941	-0.095507	0.035106	-0.0026933
0.69602	-0.2685	-0.91351	-0.74147	0.11226	-0.34049	0.0036911	-0.035901	-0.080358	0.031869	-0.0029749
3.9748	-0.2054	-1.0481	-0.20416	-0.8247	-0.21264	0.21526	0.031444	-0.012622	0.0021584	0.0019064
2.1125	-1.0455	-1.3139	-0.70996	0.083398	-0.22217	0.090298	0.10261	-0.10283	0.029996	-0.0017166
2.466	-0.66671	-2.129	-1.1521	-0.76188	-0.6061	0.086873	0.071751	-0.11985	0.02872	-0.0041919
1.7538	-0.8443	-1.6295	-0.92705	0.54291	-0.59874	-0.098316	0.071246	-0.146	0.05958	-0.00028875
0.62789	-0.65396	-1.9079	-0.48135	0.097877	-0.56035	-0.0081165	0.045538	-0.11921	0.044601	-0.002733
2.7368	0.54626	-0.34683	-1.2335	-0.47387	-0.16933	0.085623	-0.091213	-0.050266	0.011496	-0.0042423
2.3981	-2.2086	-2.2234	-2.1895	0.010668	-0.18395	0.023245	0.35023	-0.15436	0.020831	-0.0057281
-0.37697	-0.78112	-0.63547	-0.64085	0.08726	-0.51053	-0.094175	0.10447	-0.070517	0.035542	0.0026548
1.5451	-0.28146	-1.159	-0.9441	0.19482	-0.38843	-0.00073621	-0.00024851	-0.13079	0.039676	-0.0019434
1.6441	-1.2846	-0.88422	0.71269	-0.4151	0.10063	0.30169	0.0034845	0.031964	-0.0093434	0.0094145
1.5108	-1.0739	-2.08	-1.1405	0.57305	-0.36314	-0.060594	0.13851	-0.11645	0.051896	0.0030992
0.94732	-0.76705	-1.7839	-1.0326	-0.12529	-0.46652	0.010338	0.095344	-0.078093	0.025839	-0.0021613
2.3381	0.25455	-0.90427	-1.3395	-0.26643	0.060993	0.10527	-0.036292	-0.044034	0.0071819	-0.0023742
2.1576	-0.56995	-1.5499	-1.7014	-0.27143	-0.43634	0.059162	-0.0032818	-0.089459	0.01964	-0.00034438
2.6879	-1.4733	-1.3142	-0.88199	0.019282	-0.21588	0.12593	0.059498	-0.059595	0.026333	0.0015047
0.20584	-0.91849	-1.0026	-0.63074	0.046413	-0.75095	-0.078148	-0.04059	-0.057	0.055188	0.00031729
-1.0797	-1.5274	-0.30506	0.33309	-0.11246	-0.16832	0.02534	-0.018049	-0.11872	0.029132	0.0012657
-1.9576	-0.63274	-0.15855	-0.090842	0.04371	-0.1201	-0.074691	0.086947	-0.022926	0.0044651	-0.00056813
0.32873	-1.6496	-0.92047	-1.4369	-0.39263	-0.51844	-0.038324	0.24408	-0.10395	-0.00078526	-0.010323
-0.93334	-2.5227	-0.070514	-1.2975	0.090123	-0.074144	-0.13094	0.32456	0.016245	-0.017163	0.00097877
-0.99057	-2.8095	1.7807	0.44209	-0.36515	-0.069503	0.19543	-0.11557	-0.2386	0.0087095	-0.010223
-2.1702	-2.4302	1.6193	-0.78176	0.013471	-0.034152	-0.090756	-0.026363	0.06381	-0.047946	-0.0097976
