-0.0485618
-0.0543436
-0.0584823
-0.0606865
-0.0607666
-0.0586527
-0.054405
-0.0482152
-0.0403993
-0.031382
-0.0216731
-0.0118378
-0.00246303
0.00587856
0.0126641
0.0174534
0.0199167
0.0198566
0.0172207
0.0121063
0.0047557
-0.00445778
-0.0150514
-0.0264617
-0.0380782
-0.0492797
-0.059473
-0.0681284
-0.0748141
-0.0792244
-0.0812013
-0.080749
-0.078038
-0.0734013
-0.067319
-0.0603948
-0.0533225
-0.0468453
-0.0417088
-0.0386108
-0.0381493
-0.0407735
-0.0467398
-0.056077
-0.0685632
-0.0837186
-0.100814
-0.1189
-0.136847
-0.153415
-0.16732
-0.177323
-0.182314
-0.181396
-0.173964
-0.159754
-0.138887
-0.111876
-0.0796074
-0.0432988
-0.00442591
0.0353658
0.0743636
0.110895
0.143431
0.17068
0.191659
0.205747
0.212711
0.212699
0.206222
0.194098
0.17739
0.157328
0.135228
0.112406
0.090105
0.0694271
0.0512834
0.0363577
0.0250893
0.0176718
0.0140673
0.0140339
0.0171631
0.0229228
0.0307041
0.0398672
0.0497833
0.0598713
0.069627
0.0786434
0.0866218
0.0933757
0.0988258
0.10299
0.105967
0.107918
0.109051
0.109595
0.109786
0.10985
0.109995
0.110393
0.111184
0.112466
0.114298
0.116704
0.11967
0.123155
0.12709
0.131382
0.135922
0.140581
0.145217
0.149676
0.15379
0.157386
0.160284
0.162303
0.163263
0.162995
0.161347
0.15819
0.153425
0.146996
0.138891
0.129151
0.117872
0.105206
0.0913603
0.0765882
0.0611852
0.0454761
0.0298014
0.0145041
-8.65389e-005
-0.0136686
-0.0259811
-0.0368149
-0.0460209
-0.0535147
-0.0592781
-0.0633569
-0.0658553
-0.0669284
-0.066771
-0.0656063
-0.0636731
-0.0612134
-0.0584604
-0.0556279
-0.0529018
-0.0504339
-0.0483373
-0.0466851
-0.0455116
-0.0448142
-0.044559
-0.0446865
-0.0451182
-0.0457645
-0.046532
-0.0473297
-0.048076
-0.0487028
-0.0491592
-0.0494134
-0.0494535
-0.049286
-0.0489337
-0.0484329
-0.0478286
-0.0471712
-0.0465111
-0.0458957
-0.0453651
-0.0449502
-0.0446707
-0.0445347
-0.044539
-0.0446703
-0.0449079
-0.0452257
-0.0455955
-0.0459899
-0.0463851
-0.0467628
-0.0471123
-0.0474305
-0.0477224
-0.048
-0.0482804
-0.0485843
-0.0489332
-0.0493472
-0.0498428
-0.0504307
-0.0511143
-0.0518891
-0.0527415
-0.0536499
-0.0545846
-0.0555101
-0.0563859
-0.05717
-0.0578204
-0.058299
-0.0585735
-0.0586214
-0.0584313
-0.0580062
-0.0573642
-0.0565397
-0.0555831
-0.0545597
-0.0535478
-0.0526346
-0.0519126
-0.051474
-0.0514042
-0.0517755
-0.0526397
-0.0540217
-0.0559132
-0.058268
-0.0609992
-0.063978
-0.0670365
-0.0699727
-0.0725585
-0.0745519
-0.0757101
-0.0758057
-0.0746435
-0.0720766
-0.0680217
-0.062471
-0.055501
-0.0472756
-0.0380444
-0.0281345
-0.0179373
-0.00788939
0.00154981
0.00992418
0.0168078
0.0218318
0.0247085
0.0252524
0.0233953
0.019195
0.0128367
0.00462641
-0.00502309
-0.0156133
-0.0265873
-0.0373613
-0.0473589
-0.056047
-0.0629693
-0.0677777
-0.0702581
-0.0703494
-0.0681549
-0.0639435
-0.0581415
-0.0513139
-0.0441358
-0.0373542
-0.0317425
-0.0280499
-0.0269463
-0.0289695
-0.034475
-0.0435938
-0.0562018
-0.0719034
-0.090033
-0.109675
-0.129703
-0.148837
-0.165721
-0.179003
-0.187428
-0.189935
-0.185731
-0.174372
-0.155802
-0.130382
-0.0988833
-0.0624488
-0.0225325
0.0191892
0.0609206
0.100859
0.13731
0.168787
0.194101
0.212427
0.22334
0.226825
0.223263
0.213384
0.198207
0.178962
0.157004
0.133722
0.110459
0.088436
0.0686893
0.05203
0.0390165
0.0299481
0.0248743
0.0236194
0.0258188
0.0309622
0.0384425
0.0476039
0.0577882
0.0683751
0.0788155
0.0886556
0.0975524
0.105279
0.111724
0.116879
0.120827
0.12372
0.12576
0.127178
0.128212
0.129091
0.130018
0.131161
0.132646
0.134552
0.136915
0.139728
0.142948
0.146502
0.150294
0.154212
0.158131
0.161924
0.165458
0.1686
0.171216
0.173177
0.174353
0.174617
0.173848
0.171934
0.168773
0.164281
0.158397
0.151088
0.142356
0.132239
0.120821
0.108227
0.0946244
0.0802198
0.0652531
0.0499889
0.0347075
0.019693
0.00522278
-0.00844479
-0.0210803
-0.0324926
-0.0425357
-0.0511132
-0.0581808
-0.0637451
-0.0678608
-0.0706252
-0.072171
-0.0726574
-0.0722613
-0.0711673
-0.0695589
-0.0676099
-0.0654778
-0.0632984
-0.0611821
-0.0592128
-0.0574472
-0.0559172
-0.0546323
-0.0535836
-0.052748
-0.0520927
-0.0515795
-0.0511686
-0.0508215
-0.0505038
-0.0501865
-0.0498469
-0.0494692
-0.0490437
-0.048567
-0.0480407
-0.0474713
-0.0468686
-0.0462457
-0.0456184
-0.0450041
-0.0444217
-0.0438909
-0.0434314
-0.0430628
-0.0428033
-0.0426693
-0.0426748
-0.0428303
-0.0431427
-0.0436143
-0.0442426
-0.04502
-0.0459336
-0.0469653
-0.0480927
-0.0492889
-0.0505243
-0.0517676
-0.0529868
-0.0541515
-0.0552339
-0.0562105
-0.0570628
-0.0577784
-0.058351
-0.0587802
-0.0590702
-0.059229
-0.0592669
-0.0591948
-0.0590227
-0.0587591
-0.0584103
-0.0579802
-0.0574714
-0.0568857
-0.0562263
-0.0554991
-0.0547148
-0.0538904
-0.0530507
-0.0522286
-0.0514657
-0.0508115
-0.0503211
-0.0500536
-0.0500678
-0.0504188
-0.0511533
-0.0523044
-0.0538872
-0.0558942
-0.0582915
-0.061016
-0.0639742
-0.0670424
-0.0700683
-0.0728754
-0.0752695
-0.0770462
-0.0780016
-0.0779438
-0.0767056
-0.0741577
-0.0702211
-0.0648782
-0.0581819
-0.0502609
-0.0413211
-0.031642
-0.0215684
-0.0114972
-0.00185844
0.00690572
0.0143663
0.0201331
0.0238801
0.0253689
0.0244672
0.0211633
0.0155715
0.00793198
-0.00139898
-0.0119663
-0.0232404
-0.0346475
-0.0456044
-0.0555545
-0.0640046
-0.0705586
-0.0749467
-0.0770472
-0.0769007
-0.074714
-0.0708528
-0.0658242
-0.0602484
-0.0548207
-0.0502653
-0.0472843
-0.0465036
-0.0484193
-0.0533498
-0.0613948
-0.0724078
-0.0859825
-0.101458
-0.117941
-0.134351
-0.149477
-0.162054
-0.170847
-0.174742
-0.172828
-0.164481
-0.149422
-0.127757
-0.0999911
-0.0670144
-0.0300548
0.00939048
0.0496471
0.088969
0.12565
0.158132
0.185099
0.20556
0.218896
0.224891
0.223725
0.21595
0.202437
0.184306
0.162846
0.139429
0.115422
0.0921084
0.070623
0.0518959
0.036618
0.0252234
0.0178891
0.0145504
0.0149301
0.0185769
0.0249111
0.0332731
0.0429705
0.0533232
0.0637016
0.0735582
0.0824495
0.0900501
0.0961575
0.100689
0.103674
0.105234
0.10557
0.104937
0.103625
0.101938
0.10017
0.0985961
0.097453
0.0969317
0.097171
0.0982549
0.100213
0.103025
0.106623
0.110903
0.115728
0.120939
0.126361
0.131808
0.137095
0.142036
0.146451
0.150168
0.153028
0.154883
0.155599
0.155062
0.153173
0.149861
0.145076
0.138801
0.131052
0.12188
0.111378
0.0996764
0.0869451
0.0733911
0.0592526
0.0447927
0.0302907
0.0160325
0.00229932
-0.0106431
-0.0225552
-0.033233
-0.0425163
-0.0502942
-0.0565081
-0.0611527
-0.064273
-0.0659604
-0.0663453
-0.0655889
-0.0638739
-0.0613951
-0.0583497
-0.0549293
-0.0513129
-0.0476612
-0.0441131
-0.0407836
-0.037763
-0.0351181
-0.0328934
-0.0311136
-0.0297865
-0.0289055
-0.0284529
-0.028402
-0.0287196
-0.0293679
-0.0303059
-0.0314904
-0.0328769
-0.0344198
-0.0360725
-0.037788
-0.0395189
-0.0412177
-0.042838
-0.0443353
-0.0456689
-0.0468032
-0.04771
-0.0483702
-0.0487753
-0.0489292
-0.0488482
-0.048561
-0.048108
-0.0475392
-0.046912
-0.0462876
-0.0457275
-0.0452897
-0.0450248
-0.0449726
-0.045159
-0.0455939
-0.0462701
-0.0471634
-0.0482339
-0.0494287
-0.0506852
-0.0519365
-0.0531159
-0.0541631
-0.0550294
-0.0556826
-0.056111
-0.0563256
-0.0563612
-0.0562755
-0.0561456
-0.0560635
-0.0561297
-0.0564448
-0.0571007
-0.0581714
-0.0597041
-0.0617104
-0.0641608
-0.0669797
-0.0700447
-0.0731885
-0.0762046
-0.0788567
-0.0808906
-0.0820502
-0.0820935
-0.0808111
-0.0780429
-0.0736943
-0.0677484
-0.0602753
-0.0514357
-0.0414793
-0.030737
-0.0196081
-0.00854172
0.00198611
0.011498
0.0195426
0.0257217
0.0297152
0.0313031
0.0303815
0.0269724
0.0212269
0.0134193
0.00393472
-0.00675065
-0.0180959
-0.0295257
-0.0404642
-0.0503688
-0.0587643
-0.0652728
-0.0696391
-0.0717497
-0.0716436
-0.0695147
-0.0657044
-0.0606851
-0.0550338
-0.0493986
-0.0444575
-0.0408724
-0.0392416
-0.0400516
-0.0436332
-0.0501244
-0.0594432
-0.0712732
-0.0850645
-0.100051
-0.115283
-0.129681
-0.142095
-0.151381
-0.156482
-0.156503
-0.150788
-0.138979
-0.121058
-0.0973676
-0.0686052
-0.0357913
-0.000213105
0.0366516
0.0732263
0.107935
0.139303
0.166043
0.187139
0.201896
0.209979
0.211415
0.206581
0.196164
0.181102
0.162521
0.141652
0.119753
0.098038
0.0776047
0.0593841
0.0440989
0.0322408
0.0240636
0.0195918
0.0186424
0.0208582
0.0257469
0.0327259
0.0411668
0.050438
0.0599423
0.0691479
0.0776127
0.0849987
0.0910798
0.095741
0.0989723
0.100856
0.101553
0.10128
0.100298
0.0988849
0.0973245
0.0958872
0.0948175
0.0943234
0.0945684
0.0956665
0.09768
0.100619
0.104445
0.109071
0.11437
0.120179
0.126305
0.132534
0.138635
0.144369
0.149498
0.153787
0.157017
0.158988
0.159527
0.158494
0.155785
0.151342
0.14515
0.137244
0.127707
0.116669
0.104305
0.0908314
0.0764969
0.061578
0.0463679
0.0311676
0.0162756
0.00197692
-0.0114661
-0.0238234
-0.0349047
-0.0445653
-0.052711
-0.0592992
-0.0643387
-0.0678877
-0.0700481
-0.0709594
-0.0707903
-0.0697294
-0.0679754
-0.0657273
-0.0631753
-0.0604928
-0.0578301
-0.0553098
-0.0530246
-0.0510368
-0.0493802
-0.0480631
-0.0470732
-0.0463827
-0.0459539
-0.0457446
-0.0457133
-0.0458223
-0.0460411
-0.0463471
-0.046726
-0.0471706
-0.0476793
-0.0482531
-0.0488937
-0.0496004
-0.0503688
-0.0511887
-0.0520439
-0.0529118
-0.0537647
-0.054571
-0.0552971
-0.0559099
-0.0563795
-0.0566811
-0.0567984
-0.0567247
-0.0564651
-0.0560371
-0.0554702
-0.0548052
-0.054092
-0.0533866
-0.0527471
-0.0522298
-0.0518843
-0.0517496
-0.0518504
-0.0521948
-0.052773
-0.053558
-0.0545073
-0.0555668
-0.0566755
-0.0577708
-0.0587951
-0.059701
-0.0604567
-0.0610496
-0.0614886
-0.0618043
-0.0620474
-0.0622843
-0.0625921
-0.0630506
-0.0637345
-0.0647043
-0.0659974
-0.0676207
-0.0695442
-0.0716973
-0.0739677
-0.0762037
-0.07822
-0.0798066
-0.0807412
-0.0808036
-0.0797919
-0.0775396
-0.0739313
-0.0689169
-0.0625227
-0.0548582
-0.0461174
-0.0365752
-0.026578
-0.0165282
-0.00686518
0.00195815
0.00950069
0.0153593
0.0191943
0.0207515
0.019882
0.0165545
0.010863
0.00302645
-0.00661857
-0.0176324
-0.0294935
-0.0416253
-0.0534273
-0.064309
-0.0737248
-0.0812072
-0.0863978
-0.0890732
-0.0891642
-0.086767
-0.0821456
-0.0757238
-0.0680677
-0.0598572
-0.0518498
-0.0448349
-0.0395841
-0.0367968
-0.0370475
-0.0407348
-0.0480394
-0.0588917
-0.0729538
-0.0896187
-0.108028
-0.127107
-0.145624
-0.162254
-0.175667
-0.184617
-0.18803
-0.185088
-0.1753
-0.158551
-0.135129
-0.10572
-0.0713768
-0.0334621
0.00643624
0.0466029
0.0853034
0.120893
0.151916
0.177196
0.195894
0.207552
0.212107
0.209873
0.201505
0.187942
0.170336
0.149966
0.128158
0.106204
0.0852877
0.0664282
0.0504341
0.0378769
0.0290818
0.0241335
0.0228977
0.0250518
0.0301258
0.0375463
0.0466819
0.0568877
0.0675441
0.0780905
0.0880507
0.0970499
0.104824
0.111221
0.116194
0.119793
0.122146
0.123443
0.123916
0.123822
0.123423
0.122971
0.122696
0.122793
0.12342
0.124687
0.12666
0.12936
0.132764
0.136808
0.141394
0.146393
0.151647
0.156981
0.162199
0.167097
0.171462
0.175077
0.177732
0.179222
0.179361
0.177984
0.174954
0.170172
0.163583
0.15518
0.14501
0.133175
0.119834
0.105201
0.089537
0.0731441
0.0563552
0.0395217
0.0229998
0.00713633
-0.00774491
-0.0213564
-0.033458
-0.0438664
-0.0524606
-0.0591856
-0.0640524
-0.0671343
-0.0685619
-0.0685142
-0.0672086
-0.0648904
-0.0618198
-0.0582609
-0.0544702
-0.050686
-0.0471193
-0.0439473
-0.0413073
-0.0392938
-0.0379577
-0.0373068
-0.0373091
-0.0378975
-0.038976
-0.0404271
-0.04212
-0.0439191
-0.0456924
-0.0473193
-0.0486975
-0.0497487
-0.0504223
-0.0506976
-0.0505835
-0.0501171
-0.0493592
-0.0483892
-0.0472984
-0.0461826
-0.0451341
-0.0442354
-0.0435521
-0.0431287
-0.0429854
-0.0431174
-0.043496
-0.0440722
-0.0447818
-0.0455516
-0.0463066
-0.0469778
-0.0475085
-0.0478604
-0.0480173
-0.0479872
-0.0478018
-0.0475143
-0.0471946
-0.0469228
-0.0467825
-0.0468524
-0.0471993
-0.047871
-0.0488913
-0.0502561
-0.051933
-0.0538613
-0.055956
-0.0581128
-0.0602153
-0.062143
-0.0637807
-0.0650272
-0.0658039
-0.066062
-0.065788
-0.0650071
-0.0637831
-0.062217
-0.0604411
-0.058611
-0.0568961
-0.0554663
-0.0544798
-0.054069
-0.0543283
-0.0553032
-0.0569824
-0.0592934
-0.0621024
-0.0652186
-0.0684032
-0.0713827
-0.073865
-0.0755593
-0.0761957
-0.0755459
-0.0734416
-0.0697903
-0.0645865
-0.0579185
-0.0499687
-0.041008
-0.0313846
-0.0215071
-0.0118232
-0.00279518
0.00512642
0.0115297
0.0160667
0.0184759
0.0186006
0.0164014
0.0119627
0.00549175
-0.00268907
-0.0121574
-0.0224123
-0.0329004
-0.0430474
-0.0522904
-0.0601122
-0.066074
-0.069845
-0.0712272
-0.0701743
-0.0668024
-0.0613922
-0.0543813
-0.0463468
-0.0379782
-0.0300412
-0.0233334
-0.0186346
-0.0166535
-0.0179739
-0.0230037
-0.031931
-0.0446897
-0.0609389
-0.0800593
-0.101167
-0.123146
-0.144704
-0.164441
-0.180928
-0.192808
-0.198883
-0.198206
-0.190159
-0.174516
-0.151471
-0.12165
-0.086084
-0.0461554
-0.00351818
0.0400032
0.082527
0.122231
0.157465
0.186849
0.209351
0.224337
0.2316
0.231347
0.224174
0.211005
0.193022
0.171579
0.14811
0.124042
0.100711
0.0792914
0.0607452
0.0457814
0.0348409
0.0280966
0.0254703
0.0266638
0.0312
0.0384707
0.0477877
0.0584324
0.0697029
0.0809539
0.0916289
0.101283
0.109598
0.116384
0.121578
0.125229
0.127488
0.12858
0.128784
0.128412
0.127783
0.127203
0.126948
0.127249
0.12828
0.130153
0.132916
0.13655
0.140974
0.146055
0.151611
0.157427
0.163259
0.168855
0.173956
0.178315
0.181699
0.183906
0.184762
0.184134
0.181925
0.178085
0.172602
0.165505
0.156863
0.146778
0.135389
0.122859
0.109377
0.0951548
0.0804163
0.0653969
0.0503352
0.0354668
0.0210176
0.00719631
-0.00581149
-0.0178495
-0.0287951
-0.0385616
-0.0470997
-0.0543965
-0.0604724
-0.0653775
-0.0691865
-0.0719928
-0.073903
-0.0750313
-0.0754947
-0.0754088
-0.0748844
-0.0740246
-0.0729233
-0.0716638
-0.0703176
-0.0689444
-0.0675916
-0.0662947
-0.0650778
-0.0639537
-0.0629253
-0.0619863
-0.0611227
-0.0603143
-0.0595363
-0.0587617
-0.0579632
-0.0571155
-0.056198
-0.0551965
-0.0541053
-0.0529289
-0.0516821
-0.0503903
-0.0490887
-0.0478201
-0.0466332
-0.0455791
-0.0447087
-0.0440691
-0.043701
-0.0436361
-0.043895
-0.0444858
-0.0454038
-0.0466311
-0.0481373
-0.0498804
-0.0518086
-0.0538623
-0.0559765
-0.0580834
-0.0601155
-0.0620086
-0.0637043
-0.0651528
-0.0663149
-0.0671632
-0.0676833
-0.0678735
-0.0677449
-0.0673199
-0.0666314
-0.0657207
-0.0646359
-0.0634302
-0.06216
-0.0608836
-0.0596594
-0.0585449
-0.0575954
-0.0568627
-0.0563939
-0.0562301
-0.0564054
-0.0569444
-0.0578615
-0.0591581
-0.0608211
-0.0628201
-0.0651059
-0.0676081
-0.070234
-0.0728684
-0.0753741
-0.0775945
-0.0793582
-0.0804854
-0.0807967
-0.0801236
-0.0783205
-0.0752777
-0.0709341
-0.0652884
-0.058409
-0.0504389
-0.0415978
-0.0321777
-0.0225334
-0.0130677
-0.00421085
0.0036035
0.00996523
0.0145154
0.0169728
0.0171568
0.0150055
0.0105863
0.0040982
-0.00413462
-0.0136784
-0.0240137
-0.0345666
-0.0447448
-0.0539763
-0.0617494
-0.0676491
-0.0713895
-0.0728383
-0.0720327
-0.0691839
-0.0646709
-0.0590221
-0.0528856
-0.0469904
-0.0420985
-0.0389518
-0.0382164
-0.0404279
-0.0459405
-0.0548846
-0.067136
-0.0822999
-0.0997119
-0.118458
-0.137415
-0.155304
-0.170772
-0.182468
-0.189142
-0.189737
-0.183472
-0.169918
-0.149048
-0.121262
-0.0873812
-0.0486178
-0.00650519
0.0371894
0.0805743
0.121752
0.158939
0.190576
0.215423
0.232631
0.24178
0.242893
0.236418
0.223181
0.204318
0.181192
0.155298
0.128168
0.101278
0.0759693
0.0533775
0.034387
0.0196017
0.00933582
0.00362439
0.0022497
0.00478071
0.0106218
0.0190666
0.0293526
0.0407136
0.0524262
0.0638484
0.0744481
0.0838218
0.0917024
0.0979577
0.10258
0.105671
0.107418
0.10807
0.107916
0.107257
0.106387
0.105574
0.105047
0.104984
0.105511
0.106695
0.108551
0.111046
0.114103
0.117613
0.121441
0.125438
0.129444
0.133299
0.136846
0.139938
0.142438
0.144223
0.145184
0.145227
0.144274
0.142263
0.139147
0.134898
0.129504
0.122975
0.11534
0.106654
0.0969918
0.0864554
0.07517
0.0632837
0.0509648
0.0383985
0.0257812
0.0133156
0.00120328
-0.0103616
-0.0211992
-0.0311506
-0.0400832
-0.0478951
-0.0545187
-0.059922
-0.0641092
-0.0671192
-0.0690229
-0.0699196
-0.0699316
-0.0691986
-0.0678713
-0.066104
-0.0640485
-0.0618473
-0.0596276
-0.0574965
-0.0555377
-0.0538091
-0.0523427
-0.0511459
-0.0502038
-0.0494839
-0.0489406
-0.0485206
-0.0481685
-0.0478316
-0.0474645
-0.0470324
-0.0465133
-0.0458996
-0.0451977
-0.0444273
-0.0436197
-0.0428148
-0.0420587
-0.0413996
-0.0408851
-0.0405582
-0.0404545
-0.0405996
-0.0410074
-0.0416781
-0.0425987
-0.0437431
-0.0450731
-0.0465404
-0.0480893
-0.0496586
-0.0511854
-0.0526073
-0.0538653
-0.0549066
-0.0556867
-0.0561718
-0.0563403
-0.0561846
-0.0557125
-0.0549477
-0.0539301
-0.052716
-0.0513762
-0.049995
-0.0486671
-0.0474934
-0.0465769
-0.0460169
-0.0459024
-0.0463059
-0.0472767
-0.0488345
-0.0509647
-0.0536147
-0.0566923
-0.0600663
-0.0635703
-0.0670077
-0.0701603
-0.0727988
-0.0746943
-0.0756316
-0.0754227
-0.0739194
-0.0710259
-0.0667084
-0.0610023
-0.0540166
-0.0459338
-0.037006
-0.0275466
-0.017918
-0.008515
0.000254296
0.00799007
0.0143234
0.0189388
0.0215941
0.0221384
0.0205247
0.0168166
0.0111893
0.00392305
-0.00460971
-0.0139638
-0.023646
-0.033144
-0.0419576
-0.0496304
-0.0557811
-0.0601298
-0.0625215
-0.0629407
-0.0615188
-0.0585328
-0.0543929
-0.0496209
-0.04482
-0.0406355
-0.0377096
-0.0366331
-0.0378957
-0.0418393
-0.0486175
-0.0581653
-0.0701806
-0.0841229
-0.0992283
-0.114542
-0.128971
-0.141343
-0.150492
-0.155331
-0.154941
-0.148645
-0.136072
-0.117201
-0.0923838
-0.0623367
-0.0281113
0.00896528
0.0473694
0.0854759
0.121661
0.154402
0.182376
0.204532
0.220152
0.228882
0.23074
0.226095
0.215631
0.200285
0.181181
0.159551
0.136656
0.113714
0.0918366
0.071974
0.0548786
0.0410829
0.0308923
0.0243931
0.021472
0.0218456
0.0250957
0.0307096
0.0381198
0.046742
0.0560101
0.0654043
0.0744735
0.0828505
0.0902603
0.0965223
0.101546
0.105325
0.107922
0.10946
0.110104
0.110049
0.109505
0.108682
0.107787
0.107003
0.10649
0.106379
0.106762
0.107696
0.109203
0.111265
0.113831
0.116819
0.120119
0.123599
0.127107
0.130477
0.133534
0.136102
0.138001
0.139061
0.139123
0.138045
0.135709
0.132022
0.126926
0.120402
0.11247
0.103193
0.0926777
0.0810746
0.0685729
0.0553961
0.0417954
0.0280402
0.0144087
0.00117619
-0.0113955
-0.0230693
-0.0336427
-0.0429556
-0.0508973
-0.0574091
-0.0624861
-0.0661751
-0.0685701
-0.0698055
-0.0700477
-0.0694848
-0.068316
-0.0667405
-0.0649479
-0.0631084
-0.0613655
-0.0598313
-0.0585827
-0.0576614
-0.0570748
-0.0568006
-0.0567912
-0.0569807
-0.0572916
-0.0576425
-0.0579543
-0.0581567
-0.0581932
-0.0580242
-0.0576299
-0.0570103
-0.0561851
-0.0551911
-0.0540794
-0.0529113
-0.0517539
-0.0506749
-0.0497385
-0.0490007
-0.0485062
-0.0482858
-0.0483549
-0.0487137
-0.0493473
-0.0502284
-0.051319
-0.0525741
-0.0539443
-0.0553787
-0.0568283
-0.0582469
-0.0595934
-0.0608319
-0.0619322
-0.0628691
-0.0636218
-0.0641733
-0.0645098
-0.0646205
-0.0644981
-0.0641392
-0.0635461
-0.0627282
-0.0617044
-0.0605045
-0.0591714
-0.0577618
-0.0563466
-0.0550096
-0.0538449
-0.0529532
-0.0524353
-0.0523857
-0.0528838
-0.0539854
-0.0557139
-0.0580525
-0.0609382
-0.0642581
-0.0678494
-0.0715026
-0.0749692
-0.0779736
-0.0802284
-0.0814524
-0.0813911
-0.0798369
-0.0766492
-0.0717707
-0.0652401
-0.0571992
-0.0478929
-0.0376624
-0.0269317
-0.0161861
-0.00594724
0.00325782
0.0109282
0.0166214
0.0199833
0.0207735
0.0188852
0.0143562
0.00737239
-0.00173903
-0.0125249
-0.0244302
-0.0368295
-0.0490633
-0.0604783
-0.0704685
-0.078514
-0.0842171
-0.0873309
-0.0877807
-0.0856748
-0.081305
-0.075135
-0.0677778
-0.059962
-0.0524884
-0.0461796
-0.0418242
-0.0401188
-0.0416125
-0.046656
-0.0553604
-0.0675686
-0.0828426
-0.100469
-0.119486
-0.138726
-0.15688
-0.172578
-0.184475
-0.191348
-0.192183
-0.186263
-0.17323
-0.15313
-0.126424
-0.0939806
-0.0570264
-0.0170765
0.0241592
0.0648839
0.103328
0.137862
0.167095
0.189954
0.205746
0.214183
0.215384
0.20985
0.198409
0.182156
0.162362
0.140391
0.117613
0.0953221
0.0746645
0.0565879
0.0418023
0.0307625
0.0236671
0.0204749
0.0209334
0.0246183
0.0309792
0.0393874
0.0491835
0.0597206
0.0704018
0.0807094
0.0902255
0.0986435
0.105771
0.111524
0.11592
0.119057
0.121099
0.122254
0.122755
0.122845
0.122755
0.122698
0.122855
0.123372
0.124355
0.125873
0.127953
0.13059
0.133744
0.137347
0.141305
0.1455
0.149792
0.154025
0.158026
0.161608
0.164578
0.166738
0.167892
0.167855
0.16646
0.163564
0.159059
0.152881
0.14501
0.135481
0.124384
0.111863
0.0981166
0.0833875
0.0679593
0.0521433
0.0362672
0.0206612
0.00564435
-0.0084893
-0.0214831
-0.033128
-0.0432709
-0.0518185
-0.0587394
-0.0640618
-0.0678683
-0.0702882
-0.0714876
-0.0716584
-0.0710061
-0.0697389
-0.0680565
-0.0661414
-0.0641518
-0.0622165
-0.0604321
-0.0588628
-0.0575418
-0.0564741
-0.0556413
-0.0550064
-0.0545197
-0.0541242
-0.0537616
-0.0533763
-0.0529201
-0.0523549
-0.0516557
-0.0508107
-0.0498226
-0.0487075
-0.0474936
-0.0462193
-0.0449304
-0.0436774
-0.0425121
-0.0414848
-0.0406409
-0.0400184
-0.0396459
-0.0395404
-0.0397069
-0.0401381
-0.0408147
-0.0417067
-0.0427752
-0.0439743
-0.0452537
-0.0465609
-0.0478441
-0.0490534
-0.050144
-0.0510769
-0.0518204
-0.0523511
-0.0526543
-0.0527241
-0.0525629
-0.0521814
-0.0515972
-0.0508345
-0.0499226
-0.0488956
-0.0477909
-0.0466488
-0.0455119
-0.0444237
-0.0434289
-0.0425722
-0.0418977
-0.0414483
-0.0412644
-0.0413835
-0.0418381
-0.0426547
-0.0438513
-0.0454358
-0.0474028
-0.0497307
-0.0523795
-0.0552873
-0.0583687
-0.0615137
-0.0645878
-0.0674344
-0.0698792
-0.071736
-0.0728161
-0.0729383
-0.0719411
-0.0696955
-0.0661174
-0.0611789
-0.054918
-0.0474443
-0.0389417
-0.0296654
-0.0199355
-0.0101243
-0.000640182
0.00809298
0.0156585
0.0216713
0.025802
0.0277993
0.0275087
0.0248869
0.0200095
0.0130722
0.00438481
-0.00564255
-0.0165193
-0.0277005
-0.0386173
-0.0487101
-0.057463
-0.0644371
-0.0693012
-0.0718572
-0.0720598
-0.070027
-0.066042
-0.0605444
-0.0541111
-0.0474259
-0.0412407
-0.0363274
-0.0334251
-0.0331837
-0.0361089
-0.0425115
-0.0524655
-0.0657787
-0.0819799
-0.100325
-0.119822
-0.139278
-0.157366
-0.172705
-0.18395
-0.189891
-0.189545
-0.182239
-0.167673
-0.145964
-0.117651
-0.0836836
-0.0453641
-0.00427553
0.0378195
0.0790903
0.117755
0.152191
0.181038
0.20327
0.218254
0.225769
0.226004
0.219528
0.207231
0.190253
0.169904
0.147569
0.124624
0.102356
0.0818942
0.0641582
0.0498242
0.0393093
0.0327732
0.0301363
0.0311113
0.0352431
0.0419561
0.050603
0.0605127
0.0710333
0.08157
0.091613
0.100758
0.108715
0.115315
0.120495
0.124297
0.12684
0.12831
0.128933
0.128954
0.128624
0.128178
0.127827
0.127744
0.128063
0.128874
0.130223
0.132118
0.134529
0.137394
0.140624
0.144111
0.147728
0.151336
0.154786
0.157926
0.160598
0.162643
0.163907
0.164239
0.163497
0.161553
0.158295
0.153634
0.14751
0.139894
0.130795
0.120266
0.1084
0.0953379
0.0812609
0.0663909
0.0509825
0.0353155
0.0196844
0.00438691
-0.0102878
-0.0240717
-0.0367292
-0.0480669
-0.057941
-0.0662626
-0.0729986
-0.0781711
-0.0818526
-0.0841593
-0.0852421
-0.0852766
-0.0844522
-0.0829617
-0.0809919
-0.0787151
-0.076283
-0.0738221
-0.0714319
-0.0691844
-0.0671258
-0.0652794
-0.0636494
-0.0622252
-0.0609861
-0.0599054
-0.058954
-0.0581034
-0.0573282
-0.0566074
-0.0559256
-0.0552734
-0.0546471
-0.0540489
-0.0534857
-0.0529687
-0.0525121
-0.0521318
-0.0518443
-0.0516646
-0.0516057
-0.0516762
-0.0518802
-0.052216
-0.0526763
-0.0532483
-0.0539144
-0.0546538
-0.0554433
-0.0562596
-0.0570802
-0.0578851
-0.0586576
-0.0593849
-0.0600582
-0.0606723
-0.0612246
-0.0617142
-0.0621405
-0.0625019
-0.0627944
-0.0630112
-0.0631426
-0.0631765
-0.0630996
-0.0628993
-0.0625664
-0.0620977
-0.0614988
-0.0607865
-0.0599909
-0.0591558
-0.0583385
-0.0576083
-0.0570426
-0.0567229
-0.0567284
-0.0571291
-0.057979
-0.0593083
-0.0611176
-0.0633718
-0.0659972
-0.0688802
-0.0718687
-0.0747767
-0.0773914
-0.0794836
-0.0808199
-0.0811769
-0.0803569
-0.0782029
-0.0746128
-0.0695524
-0.063064
-0.0552723
-0.0463846
-0.0366862
-0.0265307
-0.0163247
-0.00650837
0.00246794
0.010169
0.0162007
0.0202358
0.0220359
0.0214699
0.0185266
0.0133204
0.0060889
-0.00281604
-0.0129461
-0.0237802
-0.0347542
-0.0452939
-0.0548511
-0.0629388
-0.0691641
-0.0732573
-0.075094
-0.0747098
-0.0723044
-0.0682366
-0.0630072
-0.0572321
-0.0516057
-0.0468554
-0.0436909
-0.0427503
-0.0445465
-0.0494177
-0.0574857
-0.0686261
-0.0824533
-0.0983223
-0.11535
-0.132457
-0.148422
-0.161959
-0.1718
-0.176785
-0.175952
-0.168615
-0.154435
-0.133457
-0.106136
-0.0733224
-0.0362202
0.00367748
0.0446809
0.085009
0.122904
0.15674
0.18513
0.207003
0.221666
0.228833
0.228631
0.221571
0.208502
0.190537
0.168978
0.145219
0.120665
0.0966414
0.074329
0.0547031
0.0384966
0.0261799
0.0179599
0.0137953
0.0134261
0.0164142
0.0221903
0.0301041
0.0394732
0.0496285
0.0599525
0.0699099
0.079068
0.0871083
0.0938286
0.0991379
0.103044
0.105639
0.107077
0.107558
0.107307
0.106558
0.105539
0.10446
0.103509
0.102842
0.102585
0.102832
0.103647
0.105062
0.107085
0.109696
0.112849
0.116476
0.120482
0.12475
0.129139
0.133488
0.137616
0.141327
0.144415
0.146673
0.147898
0.1479
0.146513
0.143602
0.139073
0.13288
0.12503
0.115584
0.104663
0.0924378
0.0791327
0.0650113
0.0503694
0.0355223
0.0207925
0.00649558
-0.00707237
-0.0196472
-0.031007
-0.0409798
-0.0494491
-0.0563558
-0.0616981
-0.0655271
-0.0679414
-0.069079
-0.0691078
-0.0682151
-0.0665976
-0.0644513
-0.061962
-0.0592987
-0.0566068
-0.0540053
-0.0515848
-0.0494076
-0.0475105
-0.0459074
-0.0445944
-0.0435537
-0.0427592
-0.0421799
-0.0417838
-0.0415404
-0.0414225
-0.0414072
-0.0414757
-0.0416136
-0.04181
-0.0420572
-0.0423498
-0.0426848
-0.0430609
-0.0434784
-0.0439392
-0.0444465
-0.0450043
-0.0456175
-0.0462907
-0.0470275
-0.0478301
-0.0486977
-0.0496261
-0.0506064
-0.0516247
-0.0526615
-0.0536916
-0.0546845
-0.0556051
-0.056415
-0.0570743
-0.057544
-0.0577885
-0.0577792
-0.0574971
-0.0569364
-0.0561067
-0.0550354
-0.0537683
-0.0523701
-0.0509225
-0.0495217
-0.048274
-0.0472904
-0.0466802
-0.0465432
-0.0469622
-0.0479948
-0.0496664
-0.0519636
-0.0548297
-0.0581622
-0.0618134
-0.0655931
-0.069275
-0.072607
-0.0753226
-0.0771565
-0.0778603
-0.0772202
-0.0750732
-0.0713224
-0.0659493
-0.0590226
-0.0507017
-0.0412351
-0.0309537
-0.020257
-0.00959556
0.000552045
0.00970495
0.0174076
0.0232576
0.026931
0.0282053
0.0269762
0.0232681
0.0172374
0.00916788
-0.000542855
-0.0114032
-0.0228545
-0.0343031
-0.0451551
-0.0548527
-0.0629098
-0.068944
-0.0727039
-0.0740902
-0.0731669
-0.070165
-0.0654738
-0.0596234
-0.053256
-0.0470875
-0.0418623
-0.0383012
-0.0370477
-0.0386143
-0.0433328
-0.0513137
-0.0624169
-0.076238
-0.0921117
-0.109135
-0.126212
-0.142109
-0.155535
-0.165226
-0.170035
-0.16902
-0.161525
-0.147244
-0.126259
-0.0990571
-0.0665159
-0.0298584
0.00941643
0.049626
0.0890101
0.125843
0.158545
0.185775
0.206517
0.220128
0.226371
0.22541
0.217784
0.204358
0.186249
0.164748
0.141232
0.117074
0.0935665
0.0718502
0.0528615
0.0372956
0.0255894
0.0179211
0.0142271
0.0142312
0.017485
0.0234142
0.0313677
0.0406665
0.050648
0.0607049
0.0703153
0.0790642
0.0866554
0.0929144
0.0977828
0.101306
0.103617
0.104913
0.105437
0.105449
0.105214
0.104976
0.104949
0.105305
0.106168
0.107611
0.109659
0.112293
0.115455
0.119056
0.122985
0.127114
0.131306
0.13542
0.139315
0.142853
0.145898
0.148321
0.149998
0.150807
0.150637
0.149381
0.146944
0.143246
0.138223
0.131837
0.124078
0.11497
0.104576
0.0929981
0.0803805
0.0669062
0.052794
0.038291
0.0236649
0.00919345
-0.00484698
-0.0181926
-0.0306032
-0.0418724
-0.0518351
-0.060373
-0.067418
-0.0729517
-0.0770034
-0.0796448
-0.0809843
-0.0811584
-0.080324
-0.0786501
-0.0763102
-0.0734753
-0.070309
-0.0669627
-0.0635728
-0.060259
-0.057123
-0.0542484
-0.0517009
-0.0495281
-0.0477606
-0.0464125
-0.0454816
-0.0449509
-0.0447893
-0.0449533
-0.0453892
-0.0460354
-0.0468257
-0.0476927
-0.0485718
-0.0494046
-0.0501425
-0.0507494
-0.0512038
-0.0514996
-0.0516457
-0.0516649
-0.051591
-0.0514661
-0.0513363
-0.0512483
-0.051245
-0.0513624
-0.0516265
-0.0520515
-0.0526384
-0.0533747
-0.0542348
-0.0551812
-0.0561665
-0.0571357
-0.0580289
-0.0587851
-0.0593456
-0.0596579
-0.0596797
-0.0593829
-0.0587569
-0.0578117
-0.0565799
-0.0551176
-0.053504
-0.0518395
-0.0502416
-0.0488398
-0.0477683
-0.0471584
-0.0471284
-0.0477748
-0.0491626
-0.0513168
-0.0542155
-0.0577849
-0.0618978
-0.0663744
-0.0709875
-0.0754707
-0.0795308
-0.0828625
-0.0851658
-0.0861648
-0.085627
-0.0833809
-0.0793321
-0.0734752
-0.0659015
-0.056801
-0.0464581
-0.035242
-0.0235907
-0.0119899
-0.000948716
0.0090279
0.0174672
0.0239559
0.0281651
0.0298707
0.0289691
0.0254852
0.0195747
0.011518
0.00170728
-0.00937304
-0.0211713
-0.0330981
-0.0445587
-0.0549865
-0.0638764
-0.070815
-0.0755083
-0.0778025
-0.0776989
-0.0753603
-0.0711083
-0.0654115
-0.0588632
-0.0521508
-0.0460158
-0.0412081
-0.0384342
-0.0383052
-0.0412852
-0.0476449
-0.0574243
-0.0704072
-0.0861115
-0.103797
-0.122493
-0.141042
-0.158166
-0.172543
-0.182893
-0.188069
-0.187148
-0.179506
-0.164877
-0.143395
-0.115601
-0.0824225
-0.045127
-0.00524722
0.0355141
0.0753917
0.11267
0.14579
0.173446
0.194657
0.208821
0.215737
0.215599
0.208964
0.196703
0.179926
0.159905
0.137981
0.115487
0.0936652
0.0736033
0.0561858
0.0420603
0.0316247
0.0250297
0.0221974
0.0228527
0.026563
0.0327833
0.0409034
0.050293
0.0603421
0.0704952
0.0802773
0.0893108
0.0973242
0.104153
0.109731
0.114084
0.117308
0.119554
0.121011
0.121887
0.122393
0.12273
0.123078
0.12359
0.124386
0.125554
0.127142
0.129171
0.131626
0.134466
0.137624
0.141011
0.144518
0.148017
0.151371
0.154426
0.157024
0.159002
0.160197
0.16045
0.159613
0.157553
0.154161
0.149352
0.143077
0.135323
0.126119
0.115538
0.103698
0.0907593
0.0769207
0.0624157
0.0475033
0.0324588
0.0175639
0.00309547
-0.0106853
-0.0235428
-0.0352752
-0.0457218
-0.054767
-0.0623425
-0.0684274
-0.0730449
-0.0762591
-0.0781683
-0.0788988
-0.0785976
-0.0774249
-0.0755471
-0.0731301
-0.0703341
-0.0673079
-0.064186
-0.061085
-0.0581019
-0.0553134
-0.0527755
-0.050525
-0.0485804
-0.0469448
-0.0456084
-0.0445516
-0.0437478
-0.0431669
-0.0427771
-0.0425474
-0.0424495
-0.0424583
-0.0425535
-0.0427193
-0.0429447
-0.0432232
-0.0435521
-0.0439319
-0.044365
-0.0448549
-0.0454043
-0.0460148
-0.046685
-0.0474104
-0.048183
-0.0489911
-0.0498203
-0.0506539
-0.0514743
-0.0522644
-0.0530081
-0.0536918
-0.0543048
-0.0548396
-0.0552916
-0.0556585
-0.0559396
-0.0561349
-0.0562437
-0.0562641
-0.0561924
-0.0560234
-0.0557511
-0.05537
-0.0548776
-0.0542764
-0.0535768
-0.0527996
-0.0519775
-0.0511565
-0.0503948
-0.0497614
-0.0493325
-0.0491865
-0.0493977
-0.050029
-0.0511252
-0.0527052
-0.054756
-0.0572282
-0.0600333
-0.0630436
-0.0660949
-0.068992
-0.0715174
-0.0734417
-0.074537
-0.0745909
-0.0734217
-0.0708931
-0.0669275
-0.0615171
-0.0547321
-0.0467242
-0.0377259
-0.0280443
-0.0180499
-0.00815998
0.00118138
0.00952761
0.0164552
0.02159
0.0246318
0.0253762
0.0237317
0.0197301
0.0135307
0.00541588
-0.00422096
-0.0148948
-0.0260552
-0.0371174
-0.0474967
-0.056645
-0.0640855
-0.0694453
-0.0724828
-0.0731086
-0.0713978
-0.0675928
-0.0620966
-0.0554548
-0.0483279
-0.0414538
-0.0356027
-0.0315264
-0.0299038
-0.0312874
-0.0360524
-0.0443545
-0.0560978
-0.0709175
-0.0881797
-0.107
-0.12628
-0.144766
-0.161118
-0.173995
-0.182147
-0.184503
-0.180261
-0.168956
-0.15051
-0.125264
-0.0939671
-0.0577486
-0.0180547
0.0234386
0.0649292
0.104604
0.140752
0.171876
0.196777
0.214626
0.225003
0.227905
0.223734
0.213244
0.197485
0.177716
0.155318
0.131702
0.108224
0.086108
0.0663848
0.0498483
0.0370316
0.0282021
0.0233732
0.0223321
0.024679
0.029873
0.0372828
0.0462361
0.0560662
0.0661516
0.0759482
0.0850112
0.0930085
0.0997242
0.105055
0.109
0.111644
0.113141
0.113694
0.113535
0.112906
0.112046
0.111177
0.11049
0.110145
0.110264
0.110927
0.112179
0.114027
0.116443
0.119373
0.122733
0.12642
0.130309
0.134262
0.138125
0.141734
0.144918
0.147502
0.149309
0.150165
0.149908
0.148388
0.145478
0.141078
0.135123
0.12759
0.118501
0.107925
0.0959846
0.0828486
0.068732
0.0538885
0.0386023
0.0231777
0.0079274
-0.00683963
-0.0208307
-0.0337809
-0.0454635
-0.0556984
-0.0643586
-0.071373
-0.076728
-0.0804651
-0.0826766
-0.0834986
-0.0831026
-0.0816856
-0.0794596
-0.0766411
-0.0734409
-0.0700555
-0.0666588
-0.0633971
-0.060385
-0.057704
-0.0554027
-0.0534994
-0.051986
-0.0508336
-0.0499977
-0.0494251
-0.0490591
-0.048845
-0.0487338
-0.0486848
-0.0486672
-0.0486599
-0.0486509
-0.0486359
-0.0486164
-0.0485984
-0.0485904
-0.0486026
-0.0486462
-0.0487327
-0.0488739
-0.0490821
-0.0493695
-0.0497483
-0.0502295
-0.0508221
-0.0515315
-0.0523572
-0.0532908
-0.0543148
-0.0554008
-0.056509
-0.0575898
-0.0585848
-0.059431
-0.0600647
-0.0604273
-0.0604708
-0.0601634
-0.0594948
-0.0584795
-0.0571596
-0.0556044
-0.0539086
-0.052188
-0.0505736
-0.0492033
-0.0482133
-0.0477279
-0.04785
-0.048652
-0.0501678
-0.0523869
-0.0552507
-0.0586513
-0.0624337
-0.0664005
-0.0703197
-0.0739348
-0.076978
-0.0791836
-0.0803037
-0.0801236
-0.0784766
-0.0752577
-0.0704344
-0.0640545
-0.0562501
-0.0472366
-0.0373071
-0.026822
-0.0161931
-0.00586506
0.00370758
0.0120846
0.0188648
0.0237106
0.0263685
0.0266872
0.0246292
0.020277
0.0138314
0.0056035
-0.00400078
-0.0145021
-0.025374
-0.0360733
-0.0460716
-0.0548873
-0.0621155
-0.0674547
-0.0707275
-0.0718959
-0.0710675
-0.0684948
-0.0645649
-0.0597803
-0.0547322
-0.050065
-0.0464357
-0.0444682
-0.0447059
-0.0475647
-0.0532907
-0.0619246
-0.073277
-0.0869177
-0.102181
-0.118188
-0.133887
-0.148113
-0.159656
-0.167341
-0.170119
-0.167144
-0.157848
-0.142004
-0.119758
-0.0916431
-0.0585628
-0.0217443
0.0173307
0.0570165
0.0956077
0.131447
0.163033
0.189106
0.208731
0.22134
0.226758
0.225197
0.217225
0.203716
0.185779
0.164677
0.141746
0.118307
0.0955937
0.0746856
0.0564611
0.0415643
0.0303909
0.0230905
0.0195848
0.0195972
0.0226923
0.0283199
0.0358619
0.0446773
0.0541436
0.0636907
0.072829
0.0811672
0.0884227
0.0944233
0.0991023
0.102487
0.104686
0.105866
0.106239
0.106039
0.105509
0.10488
0.104362
0.104134
0.104338
0.105073
0.106397
0.108328
0.110844
0.113891
0.117385
0.121218
0.125266
0.129387
0.13343
0.137239
0.140652
0.14351
0.145653
0.146928
0.147192
0.146313
0.14418
0.140702
0.135815
0.12949
0.121734
0.112595
0.102163
0.0905733
0.0779993
0.0646532
0.0507774
0.036636
0.0225052
0.0086623
-0.0046261
-0.0171148
-0.0285899
-0.0388774
-0.0478489
-0.0554253
-0.0615773
-0.066324
-0.0697279
-0.0718893
-0.072938
-0.0730248
-0.0723127
-0.0709686
-0.0691556
-0.0670267
-0.0647202
-0.0623567
-0.0600365
-0.0578402
-0.0558285
-0.0540439
-0.0525125
-0.0512459
-0.0502431
-0.0494934
-0.0489777
-0.0486709
-0.0485435
-0.0485641
-0.0487003
-0.048921
-0.0491973
-0.049504
-0.0498198
-0.0501284
-0.0504179
-0.0506812
-0.0509152
-0.0511201
-0.051299
-0.0514572
-0.0516012
-0.0517388
-0.0518784
-0.0520292
-0.052201
-0.0524044
-0.0526507
-0.0529519
-0.0533204
-0.0537684
-0.0543064
-0.0549427
-0.0556809
-0.0565187
-0.0574461
-0.0584436
-0.0594819
-0.0605215
-0.0615138
-0.0624034
-0.0631319
-0.0636418
-0.0638829
-0.0638172
-0.0634251
-0.0627104
-0.0617032
-0.0604624
-0.059074
-0.0576487
-0.0563154
-0.0552132
-0.0544808
-0.0542451
-0.0546089
-0.0556389
-0.0573556
-0.0597252
-0.0626552
-0.0659934
-0.0695324
-0.0730175
-0.0761603
-0.0786546
-0.080197
-0.0805075
-0.0793513
-0.0765591
-0.0720445
-0.065817
-0.0579892
-0.0487779
-0.0384985
-0.0275513
-0.0164027
-0.00556074
0.00445426
0.0131399
0.0200433
0.0247896
0.027108
0.0268511
0.0240072
0.0187048
0.0112083
0.001905
-0.00871533
-0.020088
-0.0316058
-0.0426547
-0.0526507
-0.0610762
-0.0675129
-0.0716702
-0.0734069
-0.0727451
-0.0698745
-0.0651476
-0.059064
-0.0522453
-0.0454004
-0.0392834
-0.0346451
-0.032181
-0.0324785
-0.0359671
-0.0428739
-0.0531897
-0.0666474
-0.082716
-0.100613
-0.119333
-0.137699
-0.154428
-0.168204
-0.17777
-0.182016
-0.180064
-0.171339
-0.155631
-0.133124
-0.104405
-0.070442
-0.0325312
0.00777539
0.0487651
0.0886713
0.125783
0.158553
0.185685
0.206214
0.219552
0.225514
0.224307
0.216508
0.203008
0.184942
0.163609
0.140386
0.116647
0.0936755
0.0726088
0.0543779
0.039676
0.0289402
0.0223511
0.0198482
0.021158
0.0258317
0.0332897
0.0428683
0.0538668
0.0655912
0.0773917
0.0886948
0.0990255
0.108023
0.115446
0.121175
0.125201
0.127618
0.128604
0.128402
0.127302
0.125621
0.123681
0.121791
0.120235
0.119254
0.119037
0.119715
0.121356
0.123967
0.12749
0.131814
0.136776
0.142172
0.147764
0.153294
0.158489
0.163076
0.166792
0.169391
0.170656
0.170405
0.168499
0.16485
0.159418
0.15222
0.143321
0.132841
0.120943
0.10783
0.0937381
0.0789276
0.0636738
0.0482582
0.0329599
0.0180461
0.00376489
-0.00966225
-0.0220461
-0.0332341
-0.0431137
-0.0516133
-0.0587025
-0.0643906
-0.0687231
-0.0717786
-0.0736628
-0.0745036
-0.074445
-0.0736405
-0.0722474
-0.0704208
-0.0683083
-0.0660451
-0.0637503
-0.0615237
-0.0594441
-0.0575681
-0.055931
-0.0545473
-0.0534136
-0.0525116
-0.0518112
-0.0512748
-0.0508614
-0.0505298
-0.0502427
-0.0499692
-0.0496868
-0.0493829
-0.0490553
-0.0487112
-0.0483666
-0.0480439
-0.0477693
-0.0475707
-0.0474743
-0.0475024
-0.0476712
-0.047989
-0.0484555
-0.0490613
-0.0497882
-0.0506103
-0.051495
-0.0524053
-0.0533012
-0.0541424
-0.0548904
-0.055511
-0.0559762
-0.0562662
-0.0563712
-0.0562921
-0.0560409
-0.0556408
-0.0551248
-0.0545338
-0.0539143
-0.0533151
-0.0527843
-0.0523652
-0.0520935
-0.0519942
-0.0520792
-0.0523467
-0.0527806
-0.0533521
-0.0540218
-0.0547436
-0.0554685
-0.0561497
-0.0567475
-0.0572336
-0.0575953
-0.0578373
-0.057983
-0.0580733
-0.0581637
-0.0583197
-0.05861
-0.0590991
-0.0598386
-0.0608592
-0.0621627
-0.0637161
-0.0654477
-0.0672466
-0.0689647
-0.0704232
-0.0714219
-0.0717518
-0.0712099
-0.0696152
-0.0668254
-0.0627514
-0.0573712
-0.050738
-0.0429862
-0.0343298
-0.025057
-0.0155185
-0.00611047
0.00274576
0.0106279
0.0171378
0.0219263
0.0247165
0.0253239
0.0236705
0.0197946
0.0138524
0.00611311
-0.00305255
-0.0131912
-0.0237909
-0.0343095
-0.0442062
-0.0529743
-0.0601738
-0.0654607
-0.068613
-0.0695505
-0.0683468
-0.0652331
-0.0605918
-0.0549403
-0.0489041
-0.0431813
-0.0384981
-0.0355594
-0.0349952
-0.0373077
-0.042822
-0.0516452
-0.0636358
-0.0783896
-0.0952423
-0.113291
-0.131438
-0.148446
-0.163017
-0.173876
-0.17986
-0.180009
-0.173642
-0.160423
-0.140403
-0.114032
-0.0821481
-0.045935
-0.00685317
0.0334493
0.0732395
0.11081
0.144583
0.173211
0.19565
0.211218
0.219622
0.220963
0.215708
0.204649
0.188832
0.169485
0.147932
0.125508
0.103483
0.0829908
0.0649778
0.0501635
0.0390206
0.0317718
0.0284022
0.0286852
0.0322183
0.0384657
0.0468047
0.0565719
0.0671062
0.0777872
0.0880666
0.0974909
0.105717
0.112517
0.117779
0.1215
0.123772
0.124764
0.124706
0.12387
0.122547
0.121031
0.119602
0.118512
0.117975
0.11816
0.119181
0.121099
0.123919
0.127593
0.13202
0.137056
0.142516
0.14818
0.153805
0.159132
0.163894
0.167826
0.170678
0.172219
0.172252
0.170619
0.167208
0.161961
0.154878
0.146013
0.13548
0.123444
0.110121
0.0957621
0.0806498
0.0650839
0.0493703
0.0338088
0.0186817
0.00424372
-0.00928638
-0.0217322
-0.0329631
-0.042896
-0.0514934
-0.0587605
-0.0647392
-0.0695017
-0.0731425
-0.0757702
-0.0775006
-0.0784492
-0.0787264
-0.078433
-0.0776585
-0.0764801
-0.0749639
-0.0731661
-0.0711366
-0.0689213
-0.0665651
-0.0641149
-0.0616208
-0.0591372
-0.0567221
-0.0544356
-0.0523375
-0.0504835
-0.048922
-0.0476904
-0.0468113
-0.0462916
-0.0461203
-0.0462702
-0.046699
-0.0473533
-0.0481722
-0.0490925
-0.0500532
-0.0510003
-0.0518899
-0.0526914
-0.0533879
-0.0539765
-0.0544667
-0.0548775
-0.0552336
-0.0555616
-0.0558857
-0.0562241
-0.0565859
-0.05697
-0.0573644
-0.057748
-0.0580928
-0.0583676
-0.0585417
-0.0585897
-0.0584944
-0.0582499
-0.0578633
-0.0573548
-0.0567566
-0.0561107
-0.0554648
-0.0548685
-0.0543688
-0.0540058
-0.053809
-0.0537954
-0.0539686
-0.0543191
-0.0548271
-0.0554661
-0.0562065
-0.0570209
-0.0578876
-0.0587937
-0.0597367
-0.0607239
-0.0617705
-0.0628949
-0.064114
-0.0654363
-0.0668558
-0.0683462
-0.069856
-0.0713068
-0.0725926
-0.0735831
-0.0741293
-0.074072
-0.0732521
-0.0715227
-0.0687624
-0.0648881
-0.0598665
-0.0537237
-0.0465523
-0.0385142
-0.0298387
-0.0208168
-0.0117897
-0.00313308
0.00476179
0.0115106
0.0167593
0.0202076
0.0216303
0.0208953
0.017977
0.0129631
0.00605492
-0.0024394
-0.0121189
-0.02251
-0.033092
-0.0433269
-0.0526909
-0.060707
-0.0669766
-0.0712069
-0.0732351
-0.0730441
-0.0707723
-0.066713
-0.0613043
-0.0551088
-0.048784
-0.0430427
-0.0386066
-0.0361552
-0.0362721
-0.0393931
-0.0457595
-0.0553811
-0.0680115
-0.0831405
-0.100004
-0.117612
-0.134802
-0.150301
-0.162807
-0.171076
-0.174017
-0.170774
-0.160806
-0.143938
-0.120398
-0.090819
-0.0562131
-0.0179181
0.0224819
0.0632557
0.102634
0.138924
0.170611
0.196456
0.215561
0.227417
0.231918
0.22935
0.220355
0.205874
0.18707
0.165247
0.141762
0.117947
0.0950278
0.0740664
0.055915
0.0411872
0.0302468
0.0232134
0.0199825
0.0202562
0.0235831
0.0294022
0.037089
0.0459995
0.05551
0.0650517
0.0741363
0.082375
0.0894875
0.0953047
0.0997629
0.102893
0.104807
0.105678
0.105722
0.105181
0.104305
0.103337
0.102501
0.101993
0.101973
0.102565
0.103849
0.105867
0.108619
0.112068
0.116144
0.12074
0.125726
0.130943
0.136213
0.141341
0.14612
0.150337
0.153776
0.156226
0.157488
0.157379
0.155742
0.152453
0.147428
0.140627
0.132063
0.121803
0.109971
0.0967466
0.0823625
0.0670985
0.0512727
0.0352311
0.0193346
0.0039452
-0.0105892
-0.0239492
-0.0358582
-0.0460943
-0.0545
-0.0609896
-0.0655516
-0.068249
-0.0692141
-0.0686409
-0.0667736
-0.0638925
-0.0602988
-0.0562971
-0.0521796
-0.0482111
-0.0446153
-0.0415658
-0.0391799
-0.0375159
-0.0365763
-0.0363125
-0.0366349
-0.0374236
-0.0385412
-0.0398459
-0.0412035
-0.0424971
-0.0436352
-0.0445561
-0.0452297
-0.0456552
-0.0458579
-0.0458826
-0.0457864
-0.0456312
-0.0454757
-0.0453695
-0.0453477
-0.0454282
-0.0456104
-0.0458765
-0.0461948
-0.0465245
-0.0468215
-0.0470448
-0.0471622
-0.047156
-0.047026
-0.046791
-0.0464885
-0.0461712
-0.0459023
-0.0457489
-0.0457749
-0.0460333
-0.0465598
-0.0473678
-0.0484449
-0.0497528
-0.0512289
-0.052791
-0.0543438
-0.0557871
-0.0570246
-0.0579731
-0.0585707
-0.0587831
-0.0586088
-0.0580803
-0.0572641
-0.0562563
-0.0551768
-0.0541603
-0.0533464
-0.0528681
-0.0528402
-0.0533483
-0.0544389
-0.0561115
-0.0583138
-0.0609396
-0.0638301
-0.0667799
-0.0695458
-0.0718595
-0.0734432
-0.0740276
-0.0733712
-0.0712786
-0.067619
-0.0623407
-0.0554825
-0.0471793
-0.0376625
-0.027254
-0.0163534
-0.00541988
0.00505131
0.014556
0.0226104
0.0287815
0.0327144
0.0341582
0.0329845
0.0292007
0.0229545
0.0145301
0.00433541
-0.00711799
-0.019243
-0.0314101
-0.0429843
-0.0533634
-0.0620165
-0.0685181
-0.0725783
-0.0740655
-0.0730205
-0.0696606
-0.0643732
-0.0576982
-0.0502998
-0.042929
-0.0363771
-0.0314246
-0.0287856
-0.0290533
-0.0326484
-0.0397753
-0.0503889
-0.0641751
-0.080549
-0.0986705
-0.11748
-0.135753
-0.152166
-0.165386
-0.174153
-0.177377
-0.174218
-0.164163
-0.14708
-0.123243
-0.0933335
-0.0584156
-0.0198737
0.0206677
0.0614444
0.100664
0.136622
0.167802
0.192976
0.211267
0.222196
0.225699
0.222112
0.212131
0.196754
0.177201
0.154829
0.131041
0.107197
0.0845416
0.0641317
0.046796
0.0331043
0.0233589
0.0176039
0.01565
0.0171121
0.0214551
0.0280446
0.0361987
0.0452363
0.0545202
0.063492
0.0716978
0.0788038
0.0846023
0.0890083
0.092049
0.093847
0.0945995
0.0945551
0.0939912
0.0931909
0.0924243
0.0919317
0.091912
0.0925146
0.0938356
0.0959177
0.0987537
0.102291
0.106439
0.111077
0.116061
0.121232
0.12642
0.131452
0.136154
0.140356
0.143892
0.146606
0.148352
0.148996
0.14842
0.146528
0.143244
0.138519
0.132334
0.124705
0.11568
0.105346
0.0938258
0.081278
0.0678935
0.0538918
0.0395147
0.0250198
0.0106719
-0.00326581
-0.0165406
-0.0289195
-0.0401979
-0.0502071
-0.0588203
-0.065957
-0.071585
-0.0757204
-0.0784254
-0.0798034
-0.0799933
-0.079161
-0.0774917
-0.0751798
-0.0724206
-0.0694013
-0.0662938
-0.0632487
-0.0603906
-0.0578153
-0.0555894
-0.0537512
-0.0523128
-0.051265
-0.0505809
-0.0502221
-0.0501429
-0.0502958
-0.0506345
-0.0511171
-0.0517069
-0.0523731
-0.0530897
-0.0538336
-0.054583
-0.0553152
-0.0560051
-0.0566245
-0.0571423
-0.0575259
-0.0577436
-0.057768
-0.0575796
-0.0571704
-0.056547
-0.0557329
-0.054769
-0.0537124
-0.0526341
-0.0516141
-0.0507357
-0.0500785
-0.0497116
-0.0496867
-0.0500319
-0.0507484
-0.051808
-0.0531538
-0.0547041
-0.0563577
-0.0580019
-0.0595223
-0.0608129
-0.0617861
-0.0623814
-0.0625727
-0.0623723
-0.0618322
-0.0610413
-0.0601197
-0.05921
-0.0584652
-0.0580359
-0.058056
-0.0586291
-0.059816
-0.0616251
-0.0640055
-0.0668449
-0.0699714
-0.0731606
-0.0761467
-0.0786381
-0.0803354
-0.0809528
-0.0802385
-0.0779958
-0.0741014
-0.06852
-0.0613143
-0.0526494
-0.0427903
-0.0320932
-0.0209904
-0.00996918
0.000453866
0.00976177
0.0174679
0.023146
0.0264586
0.0271807
0.0252173
0.0206146
0.0135622
0.00438647
-0.0064641
-0.0184418
-0.0309295
-0.0432749
-0.0548292
-0.0649851
-0.0732152
-0.0791061
-0.0823867
-0.0829503
-0.0808668
-0.0763859
-0.0699289
-0.0620702
-0.0535085
-0.0450279
-0.0374514
-0.0315886
-0.0281796
-0.0278396
-0.0310066
-0.0378967
-0.0484695
-0.0624091
-0.0791206
-0.0977469
-0.117204
-0.136235
-0.153483
-0.167573
-0.177204
-0.181241
-0.178807
-0.169351
-0.152707
-0.129124
-0.0992646
-0.0641814
-0.0252558
0.0158825
0.0574561
0.0976521
0.134736
0.167157
0.193645
0.213277
0.225524
0.230271
0.227804
0.218773
0.204138
0.185091
0.162975
0.13919
0.115113
0.0920176
0.0710093
0.0529758
0.0385563
0.0281289
0.0218146
0.0194976
0.0208578
0.0254122
0.0325623
0.041643
0.0519697
0.0628818
0.0737783
0.0841465
0.0935811
0.101794
0.108615
0.113988
0.117956
0.120646
0.122249
0.122999
0.123155
0.122977
0.122716
0.122597
0.122809
0.1235
0.124772
0.126682
0.129241
0.132421
0.136151
0.140333
0.144835
0.149504
0.154167
0.158638
0.162719
0.166208
0.168904
0.170609
0.17114
0.17033
0.16804
0.164164
0.158634
0.151428
0.142575
0.132153
0.120296
0.107182
0.093039
0.0781277
0.0627378
0.0471745
0.0317465
0.0167538
0.00247549
-0.0108413
-0.0229902
-0.0338124
-0.0432001
-0.0510982
-0.0575019
-0.0624526
-0.0660315
-0.0683516
-0.0695491
-0.0697747
-0.0691852
-0.0679358
-0.0661751
-0.06404
-0.0616537
-0.0591242
-0.0565448
-0.0539949
-0.051542
-0.0492433
-0.0471475
-0.045296
-0.0437238
-0.0424596
-0.0415256
-0.0409366
-0.0406989
-0.0408095
-0.0412551
-0.0420117
-0.0430442
-0.0443079
-0.045749
-0.0473072
-0.0489183
-0.0505172
-0.0520411
-0.0534332
-0.0546457
-0.0556417
-0.0563978
-0.0569042
-0.0571644
-0.0571948
-0.0570215
-0.0566785
-0.0562042
-0.0556385
-0.0550194
-0.0543813
-0.0537528
-0.0531558
-0.0526057
-0.052112
-0.05168
-0.0513132
-0.0510152
-0.0507931
-0.0506591
-0.0506328
-0.0507424
-0.0510242
-0.0515221
-0.0522846
-0.0533609
-0.0547962
-0.0566249
-0.0588644
-0.0615078
-0.0645176
-0.067821
-0.0713063
-0.0748229
-0.0781838
-0.081172
-0.0835497
-0.0850714
-0.0854992
-0.08462
-0.0822631
-0.0783173
-0.072746
-0.0655982
-0.0570156
-0.047234
-0.0365775
-0.0254477
-0.0143061
-0.00365123
0.00600808
0.0141817
0.0204279
0.0243819
0.0257809
0.0244841
0.0204861
0.013923
0.00506951
-0.0056716
-0.0177888
-0.030688
-0.0437243
-0.0562385
-0.0675948
-0.0772197
-0.0846375
-0.0895026
-0.0916253
-0.0909892
-0.0877604
-0.0822851
-0.0750773
-0.0667948
-0.0582046
-0.0501392
-0.0434453
-0.038927
-0.0372877
-0.0390733
-0.0446209
-0.0540171
-0.0670703
-0.0832986
-0.101938
-0.121968
-0.142165
-0.161162
-0.177537
-0.189902
-0.197001
-0.197802
-0.191586
-0.178006
-0.157135
-0.129477
-0.0959507
-0.057843
-0.0167324
0.0256071
0.0673181
0.106578
0.141712
0.171298
0.194245
0.209856
0.217851
0.218372
0.211953
0.199467
0.182056
0.161044
0.137853
0.113904
0.09054
0.0689526
0.0501238
0.0347887
0.0234163
0.0162078
0.0131127
0.0138579
0.0179885
0.0249145
0.0339612
0.044419
0.0555893
0.0668246
0.0775604
0.0873385
0.0958206
0.102793
0.108163
0.111951
0.11427
0.115311
0.115321
0.114581
0.113383
0.112016
0.110745
0.109802
0.109374
0.109597
0.110557
0.112286
0.114765
0.117934
0.121689
0.125899
0.130405
0.135031
0.13959
0.14389
0.147739
0.150951
0.153346
0.154758
0.155034
0.154041
0.151664
0.147812
0.142424
0.135468
0.126948
0.116906
0.10543
0.092646
0.0787284
0.0638915
0.0483872
0.0324982
0.0165286
0.00079295
-0.0143959
-0.0287399
-0.0419683
-0.0538497
-0.0642008
-0.0728942
-0.0798621
-0.0850966
-0.0886473
-0.0906154
-0.091146
-0.0904176
-0.0886318
-0.0860018
-0.0827421
-0.0790591
-0.0751427
-0.0711609
-0.0672554
-0.0635399
-0.0600996
-0.0569932
-0.0542554
-0.0519004
-0.049927
-0.0483219
-0.0470644
-0.04613
-0.0454926
-0.045127
-0.0450096
-0.0451186
-0.0454339
-0.0459363
-0.0466064
-0.0474243
-0.0483689
-0.0494177
-0.0505472
-0.051733
-0.0529504
-0.0541749
-0.0553822
-0.0565485
-0.0576503
-0.0586637
-0.0595644
-0.0603271
-0.0609264
-0.0613371
-0.0615359
-0.0615034
-0.0612268
-0.0607029
-0.0599413
-0.0589665
-0.05782
-0.0565615
-0.0552677
-0.0540306
-0.0529538
-0.0521468
-0.051719
-0.0517715
-0.0523891
-0.0536317
-0.0555267
-0.058062
-0.0611814
-0.0647818
-0.0687132
-0.0727824
-0.0767595
-0.0803874
-0.0833948
-0.0855114
-0.0864841
-0.0860946
-0.0841757
-0.0806264
-0.075424
-0.0686323
-0.0604047
-0.050983
-0.0406898
-0.0299154
-0.0191007
-0.00871512
0.000767993
0.00889786
0.0152726
0.0195638
0.0215388
0.0210769
0.018181
0.0129814
0.00573274
-0.00319728
-0.013346
-0.0241807
-0.0351288
-0.0456114
-0.0550793
-0.0630477
-0.0691292
-0.073062
-0.0747313
-0.0741829
-0.0716271
-0.067432
-0.0621068
-0.056274
-0.0506326
-0.0459127
-0.0428254
-0.0420088
-0.0439748
-0.0490602
-0.0573852
-0.0688239
-0.0829884
-0.0992319
-0.116668
-0.134213
-0.15064
-0.164653
-0.174974
-0.180428
-0.180035
-0.173087
-0.159223
-0.138465
-0.111245
-0.0783941
-0.041102
-0.000854182
0.0406589
0.0816475
0.120336
0.155076
0.184448
0.207349
0.223051
0.231235
0.231995
0.225813
0.213513
0.196188
0.175122
0.151699
0.127315
0.103295
0.0808223
0.0608803
0.0442148
0.0313133
0.0224025
0.0174628
0.0162565
0.018366
0.0232403
0.0302435
0.0387039
0.0479589
0.0573952
0.06648
0.0747842
0.081996
0.087925
0.0924989
0.0957516
0.0978074
0.0988599
0.0991499
0.0989427
0.0985071
0.0980961
0.0979325
0.0981974
0.0990238
0.100494
0.102638
0.105443
0.108852
0.112774
0.117091
0.121666
0.126345
0.130967
0.135369
0.139383
0.142849
0.14561
0.147517
0.148435
0.148242
0.146835
0.144133
0.140083
0.134658
0.127868
0.119756
0.110401
0.0999202
0.0884637
0.0762138
0.0633795
0.0501903
0.036889
0.0237232
0.010937
-0.00123845
-0.0125932
-0.0229463
-0.0321525
-0.0401072
-0.0467493
-0.0520626
-0.0560742
-0.0588522
-0.0604997
-0.0611494
-0.060955
-0.0600836
-0.0587066
-0.0569919
-0.0550955
-0.0531557
-0.0512877
-0.0495801
-0.0480933
-0.0468603
-0.0458879
-0.0451606
-0.0446453
-0.0442966
-0.0440619
-0.0438879
-0.0437243
-0.0435287
-0.0432691
-0.0429259
-0.0424924
-0.0419742
-0.0413886
-0.040762
-0.0401279
-0.039524
-0.0389897
-0.0385631
-0.038279
-0.0381659
-0.0382452
-0.0385289
-0.0390192
-0.039708
-0.0405772
-0.0415996
-0.04274
-0.043957
-0.045205
-0.0464367
-0.0476054
-0.0486674
-0.0495846
-0.0503266
-0.0508731
-0.0512154
-0.051358
-0.051319
-0.0511305
-0.0508382
-0.0504995
-0.0501815
-0.0499577
-0.0499036
-0.050092
-0.050587
-0.0514382
-0.0526746
-0.0542987
-0.056282
-0.0585614
-0.0610381
-0.0635787
-0.0660187
-0.0681696
-0.0698275
-0.0707851
-0.0708453
-0.0698345
-0.0676178
-0.0641114
-0.0592938
-0.053214
-0.0459956
-0.0378363
-0.0290035
-0.019824
-0.0106705
-0.00194291
0.00595208
0.0126243
0.0177233
0.0209615
0.0221339
0.0211347
0.0179688
0.012757
0.00573369
-0.00276153
-0.0123005
-0.0223886
-0.0324929
-0.0420739
-0.0506183
-0.0576735
-0.0628784
-0.065991
-0.0669093
-0.0656854
-0.0625301
-0.0578076
-0.0520203
-0.0457832
-0.0397885
-0.0347632
-0.0314193
-0.0304015
-0.0322349
-0.0372753
-0.0456671
-0.0573126
-0.0718545
-0.0886758
-0.106918
-0.125517
-0.14326
-0.158853
-0.171005
-0.178513
-0.180355
-0.175765
-0.164307
-0.145918
-0.120939
-0.0901055
-0.0545199
-0.0155894
0.025055
0.0656586
0.104453
0.139765
0.170121
0.194337
0.211581
0.221417
0.223818
0.21915
0.208137
0.191794
0.171356
0.148189
0.123704
0.0992667
0.0761244
0.0553396
0.0377441
0.0239103
0.0141416
0.00848103
0.0067355
0.00851306
0.0132687
0.0203556
0.0290765
0.038734
0.0486734
0.0583191
0.0672008
0.0749697
0.0814048
0.0864096
0.0900021
0.0922967
0.0934843
0.0938082
0.093541
0.0929623
0.0923394
0.0919112
0.091877
0.0923882
0.0935459
0.0954002
0.0979535
0.101166
0.10496
0.109231
0.113848
0.118665
0.123524
0.128257
0.132693
0.136661
0.13999
0.142513
0.144071
0.144518
0.143724
0.141581
0.138007
0.132955
0.126413
0.118411
0.109023
0.0983663
0.0865988
0.0739173
0.0605495
0.0467463
0.0327721
0.0188941
0.00537129
-0.00755552
-0.0196732
-0.0308034
-0.0408083
-0.0495929
-0.0571056
-0.0633363
-0.0683123
-0.0720928
-0.074763
-0.0764268
-0.0772004
-0.0772065
-0.076569
-0.0754091
-0.0738419
-0.0719747
-0.0699058
-0.0677236
-0.0655064
-0.0633226
-0.0612305
-0.0592785
-0.0575055
-0.0559407
-0.0546039
-0.0535059
-0.0526489
-0.0520267
-0.0516256
-0.0514251
-0.0513988
-0.0515155
-0.051741
-0.0520391
-0.0523736
-0.0527101
-0.053018
-0.0532719
-0.0534534
-0.0535521
-0.0535665
-0.0535041
-0.0533806
-0.0532193
-0.0530493
-0.0529029
-0.0528137
-0.0528128
-0.0529269
-0.0531746
-0.0535649
-0.0540951
-0.0547503
-0.0555034
-0.0563166
-0.0571439
-0.0579345
-0.0586365
-0.0592021
-0.059592
-0.0597794
-0.0597541
-0.0595248
-0.0591201
-0.0585882
-0.0579946
-0.0574185
-0.0569475
-0.0566713
-0.0566742
-0.057028
-0.057784
-0.0589669
-0.0605684
-0.0625433
-0.0648076
-0.0672389
-0.0696787
-0.0719388
-0.0738096
-0.0750709
-0.0755052
-0.0749125
-0.0731254
-0.0700241
-0.06555
-0.0597165
-0.0526162
-0.0444231
-0.0353902
-0.0258413
-0.0161573
-0.00675779
0.001921
0.00945105
0.0154383
0.019548
0.0215272
0.0212237
0.0185997
0.0137386
0.00684493
-0.00176334
-0.0116697
-0.0223804
-0.0333517
-0.0440205
-0.0538381
-0.0623037
-0.0689973
-0.0736086
-0.0759607
-0.0760275
-0.0739423
-0.0699973
-0.064633
-0.058418
-0.052018
-0.0461569
-0.0415706
-0.0389555
-0.038916
-0.0419126
-0.0482158
-0.0578687
-0.0706614
-0.0861221
-0.103525
-0.121916
-0.140161
-0.157004
-0.171147
-0.181336
-0.186444
-0.185565
-0.178081
-0.163729
-0.142629
-0.115302
-0.0826453
-0.0458888
-0.00652323
0.0337906
0.0733261
0.110398
0.143469
0.171237
0.192717
0.207285
0.214707
0.215133
0.209078
0.197364
0.181061
0.161405
0.139717
0.11732
0.0954606
0.0752442
0.0575823
0.0431566
0.0324017
0.0255035
0.0224138
0.0228779
0.0264725
0.0326494
0.0407828
0.050216
0.0603047
0.0704546
0.0801516
0.0889831
0.0966511
0.102976
0.107893
0.111442
0.113753
0.115026
0.11551
0.115484
0.115234
0.115035
0.115136
0.115746
0.117025
0.119079
0.121955
0.125645
0.130085
0.135165
0.140731
0.146596
0.152549
0.158364
0.163805
0.168639
0.172644
0.175612
0.177358
0.177725
0.176587
0.173852
0.169466
0.163412
0.155712
0.146427
0.135654
0.12353
0.110224
0.0959354
0.0808938
0.0653504
0.0495735
0.0338411
0.0184338
0.00362534
-0.010326
-0.0231864
-0.0347551
-0.0448717
-0.0534228
-0.060346
-0.0656318
-0.069324
-0.0715162
-0.0723473
-0.0719935
-0.0706594
-0.0685674
-0.0659462
-0.0630197
-0.0599959
-0.057058
-0.0543565
-0.0520044
-0.0500745
-0.0485993
-0.0475742
-0.0469619
-0.0466996
-0.0467062
-0.0468913
-0.0471624
-0.0474334
-0.0476299
-0.0476941
-0.047588
-0.0472939
-0.0468141
-0.0461693
-0.0453946
-0.0445363
-0.0436472
-0.0427822
-0.0419942
-0.0413307
-0.0408308
-0.040523
-0.0404247
-0.0405415
-0.040868
-0.0413891
-0.0420819
-0.0429175
-0.043864
-0.044888
-0.0459574
-0.0470427
-0.0481183
-0.0491638
-0.0501634
-0.0511061
-0.0519849
-0.0527959
-0.0535368
-0.0542061
-0.0548022
-0.0553222
-0.0557619
-0.0561155
-0.0563755
-0.0565336
-0.0565811
-0.0565101
-0.0563143
-0.055991
-0.0555421
-0.0549757
-0.0543082
-0.0535646
-0.0527806
-0.0520018
-0.0512841
-0.0506914
-0.0502931
-0.0501596
-0.0503574
-0.0509422
-0.0519524
-0.0534016
-0.0552728
-0.0575128
-0.060029
-0.0626892
-0.0653242
-0.0677336
-0.0696953
-0.0709779
-0.0713554
-0.0706236
-0.0686166
-0.0652231
-0.0603994
-0.0541803
-0.0466845
-0.0381159
-0.0287582
-0.0189644
-0.00914107
0.000272403
0.00882787
0.0160944
0.0216847
0.0252804
0.026654
0.0256865
0.0223787
0.016856
0.00936566
0.000266279
-0.00998944
-0.0208785
-0.0318363
-0.0422888
-0.0516864
-0.059538
-0.0654422
-0.0691156
-0.0704147
-0.0693518
-0.0661012
-0.0609979
-0.0545249
-0.0472918
-0.0400032
-0.0334189
-0.0283069
-0.0253918
-0.0253013
-0.0285131
-0.0353077
-0.0457292
-0.0595588
-0.0763028
-0.0952002
-0.115249
-0.13525
-0.153874
-0.169741
-0.181504
-0.187952
-0.188096
-0.181251
-0.167102
-0.145745
-0.117701
-0.0838954
-0.0456135
-0.00442497
0.037913
0.079566
0.118738
0.153786
0.183317
0.20627
0.221975
0.230174
0.231024
0.225065
0.21317
0.19647
0.176269
0.153957
0.130919
0.108452
0.0876952
0.0695781
0.0547832
0.0437309
0.0365823
0.0332579
0.0334708
0.0367689
0.0425841
0.0502819
0.0592107
0.0687446
0.0783199
0.0874623
0.0958041
0.103092
0.109186
0.114052
0.117745
0.120394
0.12218
0.123313
0.124018
0.124512
0.124995
0.125633
0.126559
0.127861
0.129589
0.131752
0.134324
0.137249
0.140446
0.143816
0.147244
0.150609
0.153783
0.156637
0.159041
0.160866
0.161988
0.162287
0.161648
0.159966
0.157149
0.153118
0.147816
0.141207
0.133287
0.12408
0.113649
0.10209
0.0895373
0.0761589
0.0621534
0.0477445
0.0331735
0.0186909
0.00454764
-0.00901492
-0.0217734
-0.0335309
-0.0441235
-0.0534252
-0.0613519
-0.0678617
-0.0729549
-0.0766711
-0.0790857
-0.080304
-0.0804557
-0.0796875
-0.078157
-0.0760252
-0.073451
-0.0705853
-0.0675668
-0.0645185
-0.0615456
-0.0587342
-0.0561512
-0.0538454
-0.0518489
-0.0501788
-0.04884
-0.0478271
-0.047127
-0.0467205
-0.0465841
-0.0466909
-0.0470117
-0.0475153
-0.0481689
-0.0489377
-0.049786
-0.0506764
-0.0515713
-0.0524327
-0.053224
-0.0539114
-0.0544649
-0.0548609
-0.0550829
-0.0551239
-0.0549865
-0.0546842
-0.0542406
-0.0536891
-0.0530713
-0.0524354
-0.0518338
-0.0513202
-0.0509474
-0.0507636
-0.0508099
-0.0511176
-0.0517054
-0.0525778
-0.0537237
-0.055116
-0.0567127
-0.0584579
-0.0602852
-0.0621205
-0.063887
-0.065509
-0.0669167
-0.0680504
-0.0688637
-0.0693261
-0.0694247
-0.0691646
-0.0685683
-0.0676745
-0.0665357
-0.0652155
-0.0637852
-0.0623203
-0.0608967
-0.0595868
-0.058456
-0.0575591
-0.0569378
-0.0566181
-0.0566087
-0.0569004
-0.0574663
-0.0582622
-0.0592291
-0.0602959
-0.0613825
-0.0624045
-0.0632778
-0.0639237
-0.064274
-0.0642759
-0.0638961
-0.063125
-0.0619783
-0.0604984
-0.0587538
-0.0568361
-0.054856
-0.0529372
-0.0512084
-0.0497945
-0.0488065
-0.0483319
-0.0484249
-0.0490984
-0.0503175
-0.0519965
-0.0539983
-0.0561389
-0.0581948
-0.0599153
-0.0610373
-0.0613037
-0.0604829
-0.0583881
-0.054896
-0.0499617
-0.0436299
-0.0360397
-0.0274241
-0.0181013
-0.00846094
0.00105689
0.00998672
0.0178663
0.0242664
0.0288205
0.0312509
0.0313906
0.0291988
0.0247683
0.0183238
0.0102116
0.00088062
-0.00914469
-0.0192973
-0.0290048
-0.0377282
-0.0449998
-0.0504583
-0.0538767
-0.0551842
-0.0544761
-0.0520151
-0.0482193
-0.0436397
-0.0389267
-0.0347874
-0.0319357
-0.0310377
-0.0326571
-0.0372018
-0.0448785
-0.0556566
-0.0692463
-0.0850943
-0.102396
-0.120132
-0.137114
-0.15206
-0.163673
-0.170729
-0.172173
-0.167198
-0.155325
-0.136452
-0.110886
-0.0793411
-0.0429112
-0.00301021
0.038711
0.0804663
0.120448
0.156939
0.188426
0.213684
0.23185
0.242465
0.245491
0.241288
0.230582
0.214398
0.19398
0.170709
0.146005
0.121246
0.09769
0.0764095
0.0582482
0.0437934
0.0333674
0.0270374
0.02464
0.0258175
0.0300624
0.0367665
0.0452698
0.054907
0.0650485
0.0751332
0.0846934
0.0933698
0.100918
0.107206
0.112206
0.115981
0.118665
0.120445
0.121541
0.122185
0.122606
0.123015
0.123593
0.124484
0.125792
0.127579
0.129867
0.132642
0.135856
0.139438
0.143296
0.147323
0.151403
0.155411
0.159223
0.16271
0.165744
0.168197
0.169941
0.170853
0.170809
0.169693
0.1674
0.163838
0.158933
0.15264
0.144946
0.135876
0.125496
0.113921
0.101308
0.0878615
0.0738204
0.0594552
0.0450552
0.0309167
0.0173295
0.00456352
-0.00714362
-0.0175975
-0.0266551
-0.0342295
-0.0402922
-0.0448709
-0.0480449
-0.0499376
-0.0507071
-0.0505355
-0.049618
-0.048152
-0.0463273
-0.0443179
-0.0422753
-0.0403241
-0.038559
-0.0370449
-0.0358178
-0.034888
-0.0342439
-0.0338573
-0.0336884
-0.0336916
-0.0338199
-0.0340298
-0.0342835
-0.0345517
-0.0348141
-0.0350585
-0.0352804
-0.0354804
-0.0356618
-0.0358291
-0.0359854
-0.0361317
-0.0362661
-0.0363841
-0.0364797
-0.0365468
-0.0365806
-0.0365793
-0.0365449
-0.0364844
-0.0364091
-0.0363344
-0.0362786
-0.0362611
-0.0363011
-0.0364154
-0.0366173
-0.0369152
-0.0373123
-0.037806
-0.0383885
-0.0390478
-0.0397684
-0.0405331
-0.0413238
-0.0421232
-0.0429156
-0.0436878
-0.0444292
-0.0451319
-0.0457905
-0.0464013
-0.0469616
-0.0474691
-0.0479213
-0.0483149
-0.0486461
-0.0489106
-0.0491042
-0.0492236
-0.0492674
-0.049237
-0.0491374
-0.0489777
-0.0487714
-0.0485366
-0.0482945
-0.0480693
-0.0478863
-0.0477703
-0.0477439
-0.0478252
-0.0480268
-0.0483537
-0.048803
-0.0493632
-0.0500146
-0.0507301
-0.0514769
-0.0522181
-0.0529152
-0.0535306
-0.0540301
-0.0543851
-0.0545747
-0.0545873
-0.0544217
-0.0540869
-0.0536021
-0.0529952
-0.052301
-0.0515589
-0.0508104
-0.0500958
-0.0494523
-0.0489106
-0.0484939
-0.0482155
-0.0480789
-0.0480769
-0.0481926
-0.048401
-0.0486705
-0.0489664
-0.0492535
-0.0495003
-0.0496831
-0.0497892
-0.0498204
-0.0497953
-0.0497501
-0.0497376
-0.0498249
-0.0500884
-0.0506077
-0.0514577
-0.0526996
-0.0543721
-0.0564827
-0.0590002
-0.06185
-0.0649114
-0.0680186
-0.0709658
-0.0735156
-0.0754114
-0.0763929
-0.0762131
-0.0746579
-0.0715638
-0.0668352
-0.0604582
-0.0525106
-0.0431658
-0.0326917
-0.0214427
-0.00984512
0.00162202
0.0124521
0.0221387
0.0302054
0.0362349
0.0398976
0.0409738
0.0393727
0.0351423
0.0284722
0.0196868
0.00923069
-0.00235498
-0.0144627
-0.0264543
-0.0376999
-0.0476174
-0.0557116
-0.0616077
-0.0650801
-0.0660713
-0.0647023
-0.0612711
-0.0562394
-0.0502086
-0.0438843
-0.0380322
-0.0334261
-0.0307924
-0.0307529
-0.0337711
-0.0401039
-0.0497653
-0.0625029
-0.0777925
-0.0948507
-0.112668
-0.130062
-0.145743
-0.158402
-0.166796
-0.169842
-0.166703
-0.15686
-0.14017
-0.11689
-0.0876813
-0.0535782
-0.0159323
0.0236708
0.0635098
0.101839
0.136998
0.167519
0.192211
0.210231
0.221127
0.224848
0.221731
0.212466
0.198031
0.179621
0.15856
0.136213
0.113907
0.0928476
0.0740643
0.0583611
0.0462901
0.0381432
0.03396
0.0335513
0.0365345
0.0423771
0.0504456
0.0600547
0.070515
0.0811749
0.0914565
0.100882
0.109091
0.115849
0.121048
0.124697
0.126908
0.127875
0.127855
0.127142
0.126044
0.124865
0.12388
0.123327
0.123394
0.124214
0.125861
0.128356
0.131668
0.135722
0.140408
0.145589
0.15111
0.156801
0.162492
0.168007
0.173175
0.17783
0.181809
0.184959
0.187129
0.188178
0.187974
0.186396
0.183339
0.178719
0.172477
0.164589
0.155069
0.143974
0.131409
0.117527
0.102529
0.0866596
0.0702011
0.0534623
0.0367687
0.020449
0.00482137
-0.00981947
-0.023215
-0.0351531
-0.045476
-0.0540852
-0.0609431
-0.0660712
-0.0695461
-0.0714922
-0.0720727
-0.0714794
-0.0699221
-0.0676178
-0.0647804
-0.0616122
-0.0582961
-0.0549904
-0.0518253
-0.0489008
-0.0462874
-0.0440278
-0.0421399
-0.0406212
-0.039453
-0.038606
-0.038044
-0.0377288
-0.0376232
-0.0376931
-0.0379094
-0.0382484
-0.0386907
-0.0392213
-0.0398271
-0.0404961
-0.0412157
-0.0419712
-0.0427458
-0.0435195
-0.0442699
-0.0449729
-0.0456031
-0.0461357
-0.0465474
-0.0468177
-0.0469298
-0.046872
-0.0466383
-0.0462285
-0.0456492
-0.0449135
-0.0440406
-0.043056
-0.0419905
-0.040879
-0.0397602
-0.0386744
-0.0376627
-0.0367652
-0.0360195
-0.0354593
-0.0351126
-0.035001
-0.0351384
-0.0355301
-0.0361722
-0.0370516
-0.0381456
-0.0394227
-0.0408434
-0.0423608
-0.0439232
-0.0454751
-0.0469605
-0.0483249
-0.0495181
-0.0504969
-0.0512271
-0.051686
-0.0518625
-0.0517585
-0.0513886
-0.0507783
-0.0499632
-0.0489864
-0.0478957
-0.0467413
-0.0455726
-0.0444358
-0.0433722
-0.0424161
-0.0415939
-0.0409236
-0.0404149
-0.0400694
-0.0398811
-0.0398376
-0.0399206
-0.0401074
-0.0403719
-0.040686
-0.0410215
-0.0413516
-0.0416528
-0.041907
-0.0421029
-0.0422378
-0.0423183
-0.0423599
-0.042387
-0.0424305
-0.042525
-0.0427059
-0.0430045
-0.0434445
-0.0440378
-0.0447814
-0.0456555
-0.0466226
-0.0476289
-0.0486071
-0.0494811
-0.0501716
-0.0506035
-0.0507133
-0.0504562
-0.0498123
-0.048792
-0.047438
-0.0458255
-0.0440596
-0.0422687
-0.0405964
-0.0391903
-0.0381896
-0.0377118
-0.0378407
-0.038615
-0.0400203
-0.041985
-0.0443795
-0.0470209
-0.0496822
-0.0521052
-0.0540172
-0.0551506
-0.0552622
-0.0541541
-0.0516909
-0.0478152
-0.0425573
-0.0360403
-0.028479
-0.0201716
-0.0114864
-0.00284244
0.00531406
0.0125364
0.0184054
0.0225566
0.0247061
0.0246712
0.0223868
0.0179139
0.0114416
0.00327934
-0.00615713
-0.0163685
-0.0268007
-0.0368781
-0.046041
-0.0537822
-0.0596835
-0.0634478
-0.0649251
-0.0641303
-0.0612517
-0.0566481
-0.0508342
-0.0444543
-0.0382458
-0.0329919
-0.029468
-0.0283841
-0.0303257
-0.0356992
-0.0446845
-0.0571994
-0.0728802
-0.0910803
-0.110889
-0.131174
-0.150637
-0.167894
-0.181561
-0.190355
-0.193181
-0.189226
-0.178026
-0.159518
-0.134063
-0.102436
-0.0657933
-0.0256021
0.0164448
0.0585362
0.0988551
0.135693
0.167552
0.193235
0.211907
0.223135
0.226899
0.223572
0.213883
0.19885
0.179705
0.157811
0.134572
0.111347
0.0893779
0.0697277
0.0532325
0.0404752
0.0317753
0.0271966
0.0265697
0.0295266
0.0355439
0.0439916
0.0541823
0.0654188
0.0770369
0.0884402
0.0991273
0.108709
0.116917
0.123602
0.128728
0.132357
0.134634
0.135763
0.135991
0.135585
0.134814
0.133936
0.133183
0.132753
0.132803
0.133449
0.134761
0.136768
0.139459
0.142786
0.146669
0.151001
0.155652
0.160471
0.165294
0.169942
0.174233
0.177977
0.180986
0.183075
0.184069
0.183805
0.18214
0.178955
0.174162
0.167707
0.159579
0.149807
0.13847
0.125695
0.111652
0.096558
0.0806663
0.0642609
0.0476471
0.031141
0.0150576
-0.000301031
-0.0146568
-0.027767
-0.0394326
-0.049506
-0.0578953
-0.0645664
-0.0695421
-0.0728987
-0.07476
-0.0752893
-0.0746794
-0.0731419
-0.0708964
-0.0681589
-0.0651322
-0.0619972
-0.0589059
-0.0559772
-0.0532946
-0.0509064
-0.0488284
-0.0470483
-0.0455314
-0.0442277
-0.0430789
-0.0420257
-0.0410142
-0.0400007
-0.0389556
-0.0378654
-0.0367333
-0.0355776
-0.0344295
-0.0333293
-0.0323223
-0.0314546
-0.0307685
-0.0302987
-0.0300696
-0.0300929
-0.0303664
-0.0308744
-0.0315889
-0.0324707
-0.0334733
-0.0345451
-0.0356334
-0.0366872
-0.0376608
-0.0385162
-0.039225
-0.0397692
-0.0401423
-0.0403481
-0.0404001
-0.0403196
-0.0401338
-0.0398734
-0.0395704
-0.0392557
-0.0389578
-0.0387007
-0.0385037
-0.0383803
-0.0383388
-0.0383827
-0.0385111
-0.0387196
-0.0390018
-0.0393493
-0.0397527
-0.0402023
-0.0406878
-0.0411991
-0.041726
-0.0422582
-0.0427856
-0.0432986
-0.0437877
-0.0442446
-0.044662
-0.0450341
-0.0453569
-0.0456286
-0.0458488
-0.0460194
-0.0461433
-0.0462247
-0.0462684
-0.046279
-0.0462609
-0.046218
-0.0461535
-0.04607
-0.04597
-0.045856
-0.0457314
-0.0456006
-0.0454697
-0.0453465
-0.0452405
-0.045163
-0.0451259
-0.0451412
-0.0452194
-0.0453687
-0.0455931
-0.0458917
-0.046257
-0.0466747
-0.0471239
-0.0475772
-0.0480027
-0.048366
-0.0486331
-0.0487741
-0.0487663
-0.0485987
-0.0482741
-0.0478126
-0.0472518
-0.0466472
-0.0460697
-0.0456019
-0.0453328
-0.0453506
-0.0457346
-0.0465467
-0.0478227
-0.0495649
-0.051736
-0.0542551
-0.0569975
-0.0597965
-0.0624502
-0.0647305
-0.0663964
-0.0672091
-0.0669488
-0.0654328
-0.0625322
-0.0581865
-0.0524161
-0.0453285
-0.0371209
-0.0280755
-0.0185489
-0.00895595
0.000252627
0.00861569
0.0156904
0.0210812
0.0244679
0.0256294
0.024463
0.0209962
0.0153902
0.00793495
-0.000965432
-0.0108147
-0.021054
-0.0310972
-0.0403685
-0.0483416
-0.0545765
-0.0587526
-0.0606951
-0.0603923
-0.0580037
-0.0538567
-0.0484319
-0.0423372
-0.0362719
-0.0309817
-0.0272074
-0.0256302
-0.026816
-0.0311639
-0.0388612
-0.0498495
-0.0638052
-0.0801367
-0.098001
-0.116339
-0.133931
-0.149463
-0.161617
-0.169154
-0.17101
-0.166379
-0.154785
-0.136137
-0.110754
-0.0793642
-0.0430757
-0.00331447
0.0382585
0.0798504
0.11965
0.155943
0.187217
0.212256
0.230211
0.240635
0.243504
0.239199
0.228462
0.212336
0.192083
0.169094
0.144802
0.120589
0.0977092
0.0772268
0.0599676
0.0464916
0.0370857
0.0317733
0.0303406
0.0323746
0.0373109
0.0444853
0.0531863
0.0627054
0.0723808
0.081633
0.0899918
0.097112
0.10278
0.10691
0.109537
0.110792
0.110892
0.110107
0.108739
0.107104
0.105501
0.104207
0.103453
0.10342
0.104235
0.105966
0.108625
0.112177
0.116539
0.121596
0.127201
0.133188
0.139378
0.145586
0.151623
0.157305
0.16245
0.166886
0.170449
0.172985
0.174354
0.174429
0.173098
0.170274
0.165891
0.159911
0.152333
0.14319
0.132557
0.120553
0.10734
0.0931212
0.0781364
0.0626574
0.0469777
0.0314023
0.0162363
0.00177198
-0.0117226
-0.0240152
-0.0349183
-0.0442963
-0.0520699
-0.058217
-0.062771
-0.0658164
-0.0674817
-0.0679304
-0.0673515
-0.0659483
-0.0639285
-0.0614948
-0.0588362
-0.0561221
-0.0534967
-0.051077
-0.0489509
-0.0471781
-0.0457916
-0.0448
-0.0441914
-0.0439363
-0.0439919
-0.0443055
-0.0448184
-0.045469
-0.0461957
-0.0469399
-0.0476478
-0.0482727
-0.0487765
-0.0491303
-0.0493158
-0.0493249
-0.0491603
-0.048834
-0.0483675
-0.0477892
-0.0471335
-0.0464385
-0.0457433
-0.0450863
-0.0445024
-0.0440212
-0.043665
-0.0434481
-0.0433758
-0.0434444
-0.0436423
-0.0439511
-0.0443474
-0.0448051
-0.0452976
-0.0458
-0.0462915
-0.0467563
-0.0471851
-0.0475755
-0.0479313
-0.048262
-0.0485811
-0.0489047
-0.0492494
-0.0496303
-0.0500593
-0.0505436
-0.0510847
-0.0516778
-0.0523118
-0.0529699
-0.0536307
-0.0542694
-0.0548599
-0.0553766
-0.0557962
-0.0560998
-0.0562741
-0.0563126
-0.0562161
-0.0559927
-0.0556575
-0.0552313
-0.0547391
-0.054209
-0.0536699
-0.0531497
-0.0526742
-0.0522652
-0.0519395
-0.0517078
-0.0515749
-0.0515386
-0.0515903
-0.0517149
-0.0518921
-0.0520966
-0.0523001
-0.0524727
-0.0525847
-0.0526096
-0.0525265
-0.0523225
-0.0519961
-0.0515584
-0.0510353
-0.0504678
-0.0499107
-0.0494307
-0.0491021
-0.0490017
-0.049202
-0.0497634
-0.050727
-0.0521066
-0.0538823
-0.0559961
-0.0583492
-0.0608027
-0.0631815
-0.0652813
-0.0668791
-0.0677463
-0.0676638
-0.0664386
-0.0639204
-0.0600168
-0.0547064
-0.0480486
-0.0401881
-0.0313549
-0.0218576
-0.0120723
-0.00242451
0.00663252
0.0146434
0.0211782
0.02586
0.0283915
0.0285774
0.0263422
0.0217412
0.014963
0.00632492
-0.00374178
-0.0147134
-0.0260032
-0.0369963
-0.0470876
-0.055722
-0.0624324
-0.0668751
-0.0688579
-0.0683611
-0.0655471
-0.060759
-0.0545074
-0.0474434
-0.0403216
-0.0339517
-0.0291435
-0.0266468
-0.0270907
-0.0309269
-0.0383798
-0.0494102
-0.0636931
-0.0806161
-0.099297
-0.118624
-0.137312
-0.153986
-0.167261
-0.175844
-0.17863
-0.174787
-0.163833
-0.145682
-0.120675
-0.0895702
-0.0535081
-0.013945
0.0274353
0.0688289
0.108427
0.144529
0.175653
0.200618
0.218612
0.229232
0.232484
0.228773
0.21885
0.203753
0.184721
0.16311
0.1403
0.117617
0.0962492
0.0771974
0.0612271
0.048848
0.0403094
0.0356131
0.0345412
0.036695
0.0415407
0.0484599
0.0567985
0.0659127
0.0752088
0.0841744
0.0924005
0.0995939
0.10558
0.110299
0.113792
0.116182
0.117658
0.118451
0.118808
0.118979
0.119194
0.119653
0.120515
0.121894
0.123855
0.126421
0.12957
0.133247
0.137371
0.141839
0.146535
0.151336
0.156116
0.16075
0.165112
0.169082
0.172539
0.175366
0.177445
0.178656
0.178882
0.17801
0.175928
0.172539
0.167757
0.161521
0.153797
0.144587
0.133933
0.121919
0.108678
0.0943891
0.0792722
0.0635856
0.0476163
0.0316699
0.0160589
0.00108986
-0.0129492
-0.0258013
-0.0372509
-0.0471327
-0.0553375
-0.0618158
-0.0665779
-0.0696908
-0.0712733
-0.0714883
-0.0705331
-0.0686291
-0.0660109
-0.0629149
-0.0595694
-0.0561848
-0.0529463
-0.0500075
-0.0474863
-0.0454631
-0.0439806
-0.0430458
-0.0426332
-0.0426901
-0.043142
-0.0438995
-0.0448645
-0.0459372
-0.0470215
-0.0480309
-0.048892
-0.0495481
-0.0499611
-0.0501119
-0.0500005
-0.0496441
-0.0490755
-0.0483392
-0.0474888
-0.0465825
-0.0456795
-0.044836
-0.044102
-0.0435181
-0.0431136
-0.0429048
-0.0428949
-0.0430741
-0.0434216
-0.043907
-0.0444939
-0.0451422
-0.0458117
-0.0464652
-0.0470706
-0.0476036
-0.048048
-0.048397
-0.0486523
-0.0488234
-0.048926
-0.0489802
-0.0490087
-0.0490342
-0.049078
-0.0491579
-0.0492868
-0.0494718
-0.0497134
-0.0500055
-0.0503357
-0.050686
-0.0510341
-0.0513551
-0.0516231
-0.0518132
-0.0519036
-0.0518773
-0.0517238
-0.0514406
-0.0510335
-0.0505175
-0.0499165
-0.0492622
-0.0485928
-0.0479513
-0.0473828
-0.0469318
-0.0466388
-0.0465378
-0.0466529
-0.0469959
-0.0475646
-0.0483411
-0.0492923
-0.0503708
-0.0515165
-0.0526605
-0.0537288
-0.0546477
-0.0553486
-0.0557742
-0.0558829
-0.055654
-0.0550904
-0.0542207
-0.0530992
-0.0518041
-0.0504334
-0.0491
-0.0479237
-0.0470234
-0.0465076
-0.0464652
-0.0469567
-0.0480065
-0.0495967
-0.0516635
-0.0540963
-0.0567399
-0.0593996
-0.0618504
-0.0638483
-0.0651447
-0.0655025
-0.0647126
-0.0626113
-0.0590955
-0.0541359
-0.0477858
-0.0401866
-0.0315666
-0.0222351
-0.0125695
-0.00299827
0.00602188
0.0140317
0.0205971
0.0253379
0.0279534
0.0282461
0.0261388
0.0216859
0.0150756
0.00662484
-0.0032356
-0.0139832
-0.0250336
-0.0357754
-0.0456087
-0.0539849
-0.0604446
-0.0646521
-0.0664237
-0.0657469
-0.06279
-0.0579009
-0.0515923
-0.0445169
-0.0374296
-0.0311412
-0.0264639
-0.0241525
-0.0248442
-0.0290022
-0.0368653
-0.0484098
-0.0633265
-0.0810157
-0.100603
-0.120976
-0.140843
-0.158807
-0.173453
-0.183448
-0.18764
-0.185142
-0.175417
-0.158326
-0.134161
-0.103641
-0.0678779
-0.0283137
0.0133679
0.0553478
0.0957878
0.132948
0.165293
0.191586
0.210955
0.222935
0.227478
0.224939
0.216031
0.201761
0.183353
0.162158
0.139565
0.116916
0.0954284
0.0761369
0.0598471
0.0471115
0.0382226
0.0332238
0.0319345
0.0339875
0.038873
0.0459877
0.0546825
0.0643088
0.0742579
0.0839934
0.0930742
0.101169
0.108063
0.11365
0.117932
0.120995
0.122997
0.124145
0.124678
0.124841
0.124876
0.125003
0.125408
0.126241
0.127605
0.129562
0.132129
0.135283
0.138969
0.143102
0.147574
0.152261
0.157026
0.161725
0.166211
0.170334
0.173946
0.176904
0.179066
0.180298
0.180475
0.179479
0.177209
0.173579
0.168523
0.162002
0.154008
0.144564
0.133735
0.121621
0.108367
0.0941535
0.0791995
0.0637531
0.0480852
0.0324801
0.0172251
0.00259938
-0.0111371
-0.0237537
-0.0350583
-0.0449037
-0.0531929
-0.0598808
-0.064974
-0.0685282
-0.0706427
-0.0714544
-0.0711294
-0.0698545
-0.0678285
-0.0652532
-0.0623253
-0.0592295
-0.0561325
-0.0531778
-0.0504828
-0.0481367
-0.0461995
-0.0447027
-0.0436507
-0.0430239
-0.0427814
-0.042866
-0.0432083
-0.0437319
-0.0443582
-0.0450114
-0.0456224
-0.0461327
-0.0464968
-0.0466842
-0.0466799
-0.0464842
-0.0461115
-0.045588
-0.0449494
-0.0442379
-0.0434993
-0.0427795
-0.0421223
-0.0415667
-0.0411447
-0.0408804
-0.0407884
-0.0408742
-0.0411337
-0.0415544
-0.0421163
-0.0427941
-0.0435583
-0.0443782
-0.0452234
-0.0460662
-0.046883
-0.0476562
-0.0483742
-0.0490323
-0.0496317
-0.0501785
-0.0506828
-0.0511561
-0.0516098
-0.0520535
-0.0524931
-0.0529297
-0.053359
-0.0537717
-0.0541536
-0.0544867
-0.0547517
-0.0549288
-0.0550004
-0.0549529
-0.0547784
-0.0544763
-0.0540537
-0.0535265
-0.0529185
-0.0522609
-0.0515907
-0.0509486
-0.0503774
-0.0499187
-0.0496109
-0.0494867
-0.0495705
-0.049877
-0.0504091
-0.0511572
-0.0520988
-0.0531981
-0.0544072
-0.0556676
-0.0569123
-0.058069
-0.0590635
-0.0598249
-0.0602893
-0.0604058
-0.0601407
-0.0594818
-0.0584417
-0.0570599
-0.0554028
-0.0535619
-0.0516506
-0.0497979
-0.0481416
-0.0468185
-0.0459554
-0.0456583
-0.0460029
-0.0470255
-0.0487167
-0.0510163
-0.0538125
-0.0569436
-0.0602034
-0.0633506
-0.0661205
-0.0682405
-0.069446
-0.0694989
-0.0682048
-0.0654296
-0.0611132
-0.0552802
-0.0480455
-0.0396146
-0.0302786
-0.0204029
-0.0104102
-0.00075883
0.00808243
0.0156624
0.0215758
0.0254903
0.0271707
0.0264978
0.0234809
0.0182622
0.0111134
0.00242261
-0.00732634
-0.0175824
-0.0277614
-0.0372837
-0.0456135
-0.0522973
-0.0569974
-0.0595209
-0.0598392
-0.0580976
-0.0546139
-0.0498645
-0.0444589
-0.039103
-0.0345523
-0.0315585
-0.0308114
-0.0328803
-0.038159
-0.0468181
-0.0587699
-0.0736481
-0.0908065
-0.109339
-0.128118
-0.145857
-0.161186
-0.172743
-0.17927
-0.179708
-0.173288
-0.159602
-0.138653
-0.110877
-0.0771305
-0.0386558
0.00299584
0.0460562
0.0886531
0.12893
0.165166
0.195879
0.219918
0.236526
0.245369
0.246544
0.240548
0.228231
0.210725
0.189351
0.165538
0.14072
0.116259
0.0933661
0.0730458
0.0560557
0.0428866
0.0337614
0.0286505
0.0273023
0.0292843
0.0340308
0.040894
0.0491948
0.0582689
0.0675069
0.0763857
0.084491
0.091529
0.0973291
0.101839
0.105109
0.10728
0.108554
0.109176
0.10941
0.109515
0.109731
0.110261
0.111259
0.112829
0.115021
0.117834
0.121221
0.125098
0.129354
0.13386
0.138479
0.143072
0.147508
0.151663
0.155426
0.158696
0.161381
0.163395
0.164657
0.165087
0.164604
0.163128
0.160579
0.156884
0.151978
0.145812
0.138358
0.129617
0.119623
0.108447
0.0962025
0.0830416
0.069156
0.0547716
0.0401413
0.0255367
0.011237
-0.00248189
-0.0153595
-0.0271621
-0.0376932
-0.046802
-0.0543896
-0.0604133
-0.0648865
-0.0678771
-0.0695017
-0.069919
-0.0693194
-0.0679143
-0.0659244
-0.0635685
-0.061052
-0.0585577
-0.0562381
-0.0542098
-0.0525506
-0.0512989
-0.0504552
-0.0499861
-0.0498299
-0.0499035
-0.0501099
-0.0503464
-0.0505128
-0.0505181
-0.0502874
-0.0497664
-0.0489257
-0.047762
-0.0462985
-0.0445836
-0.0426877
-0.0406986
-0.0387162
-0.0368459
-0.035192
-0.0338506
-0.0329039
-0.0324144
-0.0324208
-0.0329355
-0.0339438
-0.0354048
-0.037254
-0.0394072
-0.0417659
-0.0442233
-0.0466706
-0.0490031
-0.051126
-0.0529596
-0.0544428
-0.055536
-0.0562224
-0.0565073
-0.0564175
-0.0559979
-0.0553081
-0.0544179
-0.053402
-0.0523352
-0.051287
-0.0503172
-0.0494723
-0.0487834
-0.0482649
-0.0479152
-0.047719
-0.0476506
-0.0476784
-0.0477696
-0.0478956
-0.0480359
-0.0481819
-0.0483383
-0.0485233
-0.0487668
-0.0491068
-0.0495841
-0.0502365
-0.0510925
-0.0521653
-0.0534477
-0.0549098
-0.0564979
-0.0581363
-0.0597319
-0.0611812
-0.0623785
-0.0632262
-0.0636438
-0.0635779
-0.0630091
-0.0619568
-0.0604807
-0.0586792
-0.0566837
-0.0546497
-0.0527449
-0.0511365
-0.0499757
-0.0493841
-0.0494405
-0.0501708
-0.0515403
-0.0534516
-0.0557459
-0.0582097
-0.0605861
-0.0625903
-0.0639282
-0.0643181
-0.063512
-0.0613178
-0.0576178
-0.0523845
-0.0456904
-0.0377119
-0.0287252
-0.019096
-0.00926115
0.000295286
0.00907094
0.0165769
0.0223702
0.026085
0.0274602
0.0263605
0.0227909
0.0169016
0.00898367
-0.000544842
-0.0111622
-0.0222738
-0.033249
-0.0434617
-0.0523323
-0.0593683
-0.0642004
-0.0666121
-0.0665603
-0.064186
-0.0598123
-0.0539306
-0.0471744
-0.0402823
-0.0340504
-0.0292784
-0.0267102
-0.026975
-0.0305309
-0.0376158
-0.0482102
-0.0620145
-0.0784456
-0.0966519
-0.115551
-0.133884
-0.150294
-0.163407
-0.171931
-0.174749
-0.171009
-0.160199
-0.142198
-0.117306
-0.0862442
-0.0501172
-0.0103559
0.0313708
0.0732592
0.113485
0.15032
0.182236
0.207999
0.226734
0.237971
0.241653
0.238128
0.2281
0.212573
0.192771
0.170055
0.145829
0.121458
0.0981934
0.0771071
0.0590486
0.0446164
0.0341488
0.0277322
0.0252232
0.0262838
0.0304235
0.0370471
0.0455024
0.0551259
0.0652838
0.0754047
0.0850052
0.0937057
0.101238
0.107443
0.112268
0.115749
0.117996
0.11918
0.119508
0.119209
0.118521
0.117673
0.116875
0.116314
0.116144
0.116487
0.117428
0.119015
0.121265
0.12416
0.127653
0.13167
0.13611
0.140851
0.14575
0.150647
0.155366
0.159719
0.163509
0.166536
0.1686
0.169508
0.169081
0.167162
0.163623
0.158374
0.151368
0.142611
0.132162
0.120136
0.106707
0.0920994
0.0765832
0.0604665
0.0440823
0.0277756
0.0118892
-0.0032506
-0.0173478
-0.0301485
-0.0414504
-0.05111
-0.0590453
-0.065237
-0.069725
-0.0726033
-0.0740116
-0.0741266
-0.0731509
-0.0713026
-0.0688047
-0.0658752
-0.0627188
-0.0595198
-0.0564365
-0.0535982
-0.0511028
-0.0490169
-0.0473771
-0.046192
-0.0454458
-0.0451017
-0.0451069
-0.0453964
-0.0458979
-0.0465357
-0.0472352
-0.0479263
-0.0485467
-0.0490448
-0.0493819
-0.0495337
-0.0494907
-0.0492587
-0.0488574
-0.0483191
-0.0476855
-0.0470054
-0.0463305
-0.0457121
-0.0451973
-0.0448256
-0.0446263
-0.0446167
-0.0448005
-0.0451688
-0.0457003
-0.0463637
-0.0471207
-0.0479288
-0.0487452
-0.0495301
-0.0502499
-0.0508798
-0.051405
-0.0518216
-0.052136
-0.0523634
-0.0525257
-0.0526481
-0.0527564
-0.0528738
-0.0530182
-0.0532004
-0.0534228
-0.0536805
-0.0539614
-0.0542491
-0.0545253
-0.0547731
-0.0549799
-0.0551396
-0.0552545
-0.0553357
-0.0554025
-0.0554803
-0.0555978
-0.0557837
-0.0560622
-0.0564499
-0.0569522
-0.0575611
-0.058255
-0.0589984
-0.0597454
-0.0604422
-0.0610331
-0.0614653
-0.061695
-0.061693
-0.0614492
-0.0609756
-0.0603078
-0.0595044
-0.0586438
-0.0578195
-0.0571335
-0.0566877
-0.0565755
-0.0568721
-0.057626
-0.0588515
-0.0605227
-0.0625705
-0.064882
-0.0673033
-0.0696449
-0.0716914
-0.0732125
-0.0739773
-0.0737694
-0.0724028
-0.0697373
-0.0656923
-0.0602579
-0.0535029
-0.0455775
-0.0367123
-0.0272112
-0.0174393
-0.00780637
0.00125394
0.00930758
0.0159453
0.0208077
0.0236089
0.024157
0.0223696
0.018284
0.0120602
0.00397663
-0.00558095
-0.0161383
-0.0271574
-0.0380661
-0.0482913
-0.0572945
-0.0646058
-0.069857
-0.072809
-0.073374
-0.0716285
-0.0678181
-0.06235
-0.0557765
-0.0487657
-0.0420636
-0.0364463
-0.0326679
-0.0314032
-0.0331922
-0.0383884
-0.0471157
-0.0592375
-0.0743418
-0.0917448
-0.110514
-0.129511
-0.147455
-0.162999
-0.174818
-0.181703
-0.182651
-0.176949
-0.164237
-0.144554
-0.11835
-0.0864749
-0.0501345
-0.0108197
0.0297856
0.069911
0.107813
0.141884
0.170754
0.193367
0.209041
0.217495
0.21885
0.213603
0.202575
0.186848
0.167675
0.146402
0.124372
0.102851
0.0829577
0.0656065
0.051476
0.0409902
0.0343197
0.0313987
0.0319564
0.0355566
0.041645
0.0495972
0.0587668
0.0685281
0.0783122
0.0876358
0.0961192
0.103497
0.109617
0.114436
0.118008
0.120461
0.121984
0.122803
0.123162
0.123303
0.123453
0.123809
0.124532
0.125739
0.127508
0.129869
0.132818
0.136314
0.140288
0.144651
0.149294
0.154096
0.15893
0.16366
0.168146
0.172245
0.175813
0.178701
0.180761
0.181846
0.181811
0.180523
0.177859
0.173717
0.168019
0.160722
0.15182
0.141353
0.129407
0.116118
0.10167
0.0862954
0.0702622
0.0538712
0.0374428
0.0213048
0.00577966
-0.00882968
-0.0222521
-0.0342601
-0.0446784
-0.0533911
-0.0603446
-0.0655476
-0.0690679
-0.0710267
-0.0715893
-0.0709554
-0.0693472
-0.0669974
-0.0641384
-0.060991
-0.0577561
-0.0546074
-0.0516863
-0.0491001
-0.0469204
-0.0451856
-0.0439032
-0.0430549
-0.0426012
-0.0424874
-0.0426491
-0.0430172
-0.043523
-0.0441018
-0.0446957
-0.0452556
-0.0457426
-0.0461277
-0.0463923
-0.0465266
-0.0465286
-0.0464028
-0.0461591
-0.0458106
-0.0453732
-0.0448641
-0.0443013
-0.0437028
-0.0430866
-0.0424699
-0.0418696
-0.0413016
-0.0407813
-0.0403231
-0.0399401
-0.039644
-0.039445
-0.039351
-0.0393678
-0.0394986
-0.0397436
-0.0401001
-0.0405624
-0.0411219
-0.0417667
-0.0424825
-0.0432526
-0.0440585
-0.0448802
-0.0456975
-0.0464902
-0.0472394
-0.0479285
-0.0485435
-0.0490744
-0.0495152
-0.0498648
-0.0501268
-0.0503094
-0.0504247
-0.0504879
-0.0505162
-0.050527
-0.0505366
-0.0505584
-0.0506013
-0.0506685
-0.0507565
-0.0508545
-0.0509452
-0.051005
-0.0510063
-0.0509194
-0.0507152
-0.0503683
-0.0498605
-0.0491833
-0.0483411
-0.0473528
-0.0462532
-0.045093
-0.0439377
-0.0428657
-0.0419639
-0.0413239
-0.0410356
-0.0411811
-0.0418274
-0.0430196
-0.0447744
-0.047074
-0.0498625
-0.0530427
-0.0564769
-0.059989
-0.0633704
-0.066388
-0.0687958
-0.070348
-0.0708143
-0.0699958
-0.0677409
-0.0639599
-0.0586372
-0.0518402
-0.0437233
-0.0345272
-0.0245726
-0.0142481
-0.00399268
0.00572575
0.014436
0.0216909
0.0270948
0.03033
0.0311797
0.0295458
0.0254602
0.019089
0.0107271
0.000786016
-0.0102274
-0.021739
-0.0331405
-0.0438265
-0.0532326
-0.0608729
-0.0663739
-0.0695025
-0.0701877
-0.0685314
-0.0648099
-0.0594641
-0.0530782
-0.0463474
-0.0400368
-0.0349314
-0.0317815
-0.0312462
-0.0338372
-0.0398693
-0.0494192
-0.0622975
-0.0780375
-0.0959019
-0.11491
-0.133886
-0.15152
-0.166455
-0.177371
-0.183082
-0.182628
-0.175353
-0.160969
-0.139598
-0.111779
-0.0784495
-0.0408985
-0.000687876
0.0404436
0.0806916
0.118302
0.15168
0.179493
0.200742
0.214817
0.221522
0.221064
0.214029
0.201318
0.184079
0.163623
0.141327
0.118555
0.0965735
0.0764842
0.059174
0.045282
0.0351858
0.0290054
0.0266241
0.0277213
0.0318159
0.0383139
0.0465592
0.0558814
0.0656394
0.0752577
0.0842541
0.0922578
0.0990183
0.104405
0.108399
0.11108
0.112606
0.113195
0.113098
0.112584
0.111914
0.11133
0.111039
0.111207
0.111952
0.113342
0.115402
0.118113
0.121421
0.125244
0.129475
0.133995
0.138674
0.143376
0.147963
0.152295
0.156237
0.15965
0.162402
0.164358
0.165392
0.165378
0.164203
0.161761
0.157966
0.15275
0.146075
0.13793
0.128345
0.117386
0.105163
0.0918297
0.0775793
0.0626432
0.0472842
0.0317881
0.016454
0.00158275
-0.0125351
-0.0256312
-0.0374713
-0.0478648
-0.0566731
-0.0638147
-0.0692679
-0.0730699
-0.0753127
-0.0761372
-0.0757235
-0.0742806
-0.0720345
-0.0692164
-0.0660509
-0.0627463
-0.0594859
-0.0564218
-0.0536711
-0.0513146
-0.0493977
-0.0479333
-0.0469062
-0.0462787
-0.0459963
-0.0459942
-0.0462024
-0.0465514
-0.0469757
-0.0474171
-0.047827
-0.0481677
-0.0484127
-0.0485471
-0.0485661
-0.0484749
-0.0482868
-0.0480215
-0.0477039
-0.0473619
-0.0470244
-0.04672
-0.0464748
-0.0463115
-0.0462476
-0.046295
-0.0464593
-0.0467396
-0.0471284
-0.0476125
-0.0481737
-0.0487892
-0.0494338
-0.0500805
-0.0507021
-0.0512728
-0.0517694
-0.0521727
-0.0524685
-0.0526484
-0.0527111
-0.0526616
-0.0525122
-0.0522816
-0.0519943
-0.0516791
-0.0513682
-0.0510951
-0.0508927
-0.0507912
-0.0508165
-0.0509882
-0.0513182
-0.0518096
-0.0524561
-0.0532421
-0.0541431
-0.0551268
-0.0561545
-0.0571832
-0.0581676
-0.059062
-0.059823
-0.0604113
-0.0607934
-0.0609439
-0.060846
-0.0604939
-0.0598928
-0.0590603
-0.0580268
-0.0568358
-0.0555431
-0.0542166
-0.0529344
-0.0517821
-0.0508494
-0.0502261
-0.049996
-0.0502311
-0.0509853
-0.0522871
-0.0541341
-0.0564875
-0.0592686
-0.0623572
-0.0655933
-0.0687808
-0.0716952
-0.0740941
-0.07573
-0.0763666
-0.0757947
-0.0738496
-0.0704269
-0.065496
-0.0591096
-0.0514095
-0.0426253
-0.0330681
-0.0231179
-0.013205
-0.00378671
0.00467884
0.0117615
0.0170874
0.0203648
0.0214061
0.0201441
0.0166406
0.0110867
0.00379489
-0.00481777
-0.0142538
-0.0239657
-0.0333912
-0.0419899
-0.049281
-0.0548774
-0.0585157
-0.0600792
-0.0596112
-0.0573195
-0.053569
-0.0488631
-0.043815
-0.0391082
-0.0354502
-0.0335201
-0.0339138
-0.0370906
-0.043325
-0.0526668
-0.0649142
-0.0796023
-0.0960102
-0.113187
-0.129998
-0.145187
-0.157454
-0.165548
-0.16835
-0.164969
-0.15482
-0.137681
-0.113734
-0.0835756
-0.0481956
-0.0089267
0.0326318
0.0747116
0.115487
0.153193
0.186233
0.213279
0.233353
0.245872
0.250675
0.248016
0.238532
0.223181
0.203173
0.17988
0.154745
0.129193
0.10455
0.081974
0.0624014
0.0465136
0.034722
0.0271714
0.0237595
0.0241699
0.0279157
0.0343874
0.0429049
0.0527666
0.0632945
0.0738722
0.0839741
0.0931852
0.101211
0.107878
0.113127
0.116999
0.11962
0.121173
0.121885
0.121997
0.121754
0.121379
0.121071
0.120987
0.121245
0.121921
0.123048
0.124627
0.126626
0.128995
0.131665
0.13456
0.137598
0.140699
0.143782
0.146766
0.149574
0.152124
0.154331
0.156104
0.157343
0.157939
0.157777
0.156734
0.154692
0.151533
0.147155
0.141477
0.134446
0.126044
0.116297
0.105275
0.0930977
0.0799297
0.0659808
0.051497
0.0367531
0.0220414
0.00765994
-0.00610044
-0.0189689
-0.0307063
-0.0411157
-0.0500504
-0.0574192
-0.0631888
-0.0673828
-0.0700783
-0.0713987
-0.0715057
-0.0705886
-0.0688533
-0.0665112
-0.0637684
-0.0608164
-0.0578247
-0.0549347
-0.0522569
-0.0498698
-0.0478206
-0.0461289
-0.0447902
-0.0437817
-0.0430678
-0.0426054
-0.0423494
-0.0422566
-0.0422891
-0.042416
-0.0426149
-0.0428711
-0.0431772
-0.0435312
-0.043935
-0.044392
-0.0449055
-0.0454772
-0.0461058
-0.0467868
-0.047512
-0.0482697
-0.0490458
-0.0498242
-0.050588
-0.0513205
-0.0520064
-0.0526324
-0.0531882
-0.0536667
-0.0540641
-0.0543803
-0.0546185
-0.0547846
-0.0548867
-0.0549345
-0.0549383
-0.0549083
-0.0548539
-0.054783
-0.0547011
-0.0546119
-0.0545167
-0.0544152
-0.0543059
-0.0541874
-0.0540588
-0.0539215
-0.0537796
-0.0536407
-0.0535161
-0.0534207
-0.0533724
-0.0533908
-0.0534962
-0.0537071
-0.0540388
-0.0545013
-0.0550978
-0.055823
-0.0566622
-0.0575917
-0.0585784
-0.0595818
-0.0605554
-0.0614494
-0.0622143
-0.0628036
-0.0631782
-0.0633094
-0.0631825
-0.0627993
-0.0621797
-0.0613624
-0.0604041
-0.0593769
-0.058365
-0.0574591
-0.0567504
-0.0563235
-0.0562489
-0.0565754
-0.0573243
-0.0584835
-0.0600041
-0.0617995
-0.0637465
-0.0656893
-0.0674466
-0.0688206
-0.0696086
-0.0696164
-0.0686719
-0.0666394
-0.0634323
-0.0590249
-0.0534597
-0.0468527
-0.0393931
-0.0313386
-0.0230058
-0.0147554
-0.00697406
-5.20746e-005
0.00564033
0.00977734
0.0121007
0.0124396
0.0107268
0.00700782
0.00144372
-0.00569353
-0.0140335
-0.0231268
-0.0324706
-0.0415387
-0.049815
-0.0568272
-0.0621798
-0.0655835
-0.0668797
-0.0660576
-0.0632634
-0.0587993
-0.0531133
-0.0467777
-0.040459
-0.0348777
-0.0307624
-0.0287978
-0.0295718
-0.0335234
-0.0408962
-0.0517004
-0.0656879
-0.0823426
-0.100889
-0.120321
-0.139447
-0.156959
-0.171509
-0.181798
-0.186669
-0.185198
-0.176771
-0.161142
-0.138476
-0.109352
-0.0747472
-0.035982
0.00535333
0.0474974
0.0886279
0.126976
0.160937
0.189167
0.210661
0.224804
0.231396
0.230646
0.22314
0.209791
0.191761
0.170379
0.147053
0.123181
0.100068
0.0788621
0.060495
0.0456523
0.0347541
0.0279578
0.0251758
0.0261065
0.0302766
0.0370882
0.0458695
0.0559242
0.0665765
0.0772096
0.0872964
0.0964202
0.104286
0.110723
0.115678
0.119204
0.121441
0.122595
0.122918
0.122681
0.122156
0.121602
0.121243
0.121265
0.121805
0.122955
0.124755
0.127207
0.130271
0.133879
0.13794
0.142343
0.146967
0.151685
0.156361
0.160859
0.165037
0.168751
0.171855
0.174197
0.175628
0.175998
0.175164
0.172994
0.169376
0.164221
0.157474
0.149121
0.139193
0.127767
0.114976
0.100998
0.0860593
0.070424
0.0543866
0.0382603
0.0223651
0.00701482
-0.00749612
-0.0209042
-0.0329875
-0.0435737
-0.0525463
-0.059847
-0.0654761
-0.0694894
-0.0719927
-0.0731341
-0.0730947
-0.0720778
-0.0702987
-0.0679731
-0.0653082
-0.0624934
-0.0596942
-0.0570465
-0.0546545
-0.0525889
-0.0508887
-0.0495632
-0.0485959
-0.0479494
-0.0475705
-0.0473958
-0.0473572
-0.0473867
-0.0474213
-0.0474062
-0.0472979
-0.0470664
-0.0466955
-0.0461835
-0.045542
-0.0447944
-0.0439735
-0.0431187
-0.0422729
-0.0414792
-0.0407782
-0.0402048
-0.0397865
-0.0395419
-0.0394797
-0.0395989
-0.0398899
-0.0403351
-0.0409116
-0.0415925
-0.0423495
-0.0431546
-0.0439819
-0.0448085
-0.0456158
-0.0463891
-0.0471173
-0.0477926
-0.0484094
-0.0489631
-0.0494497
-0.0498649
-0.0502043
-0.0504632
-0.0506374
-0.0507241
-0.0507225
-0.0506352
-0.0504683
-0.0502322
-0.0499414
-0.0496141
-0.0492715
-0.0489363
-0.0486317
-0.0483799
-0.0482008
-0.0481105
-0.048121
-0.0482389
-0.048466
-0.0487987
-0.0492288
-0.0497443
-0.0503294
-0.050966
-0.051634
-0.0523121
-0.0529781
-0.0536099
-0.0541852
-0.0546825
-0.0550813
-0.0553627
-0.0555101
-0.0555101
-0.0553534
-0.0550362
-0.0545611
-0.0539388
-0.0531888
-0.0523404
-0.0514331
-0.050516
-0.0496467
-0.0488893
-0.0483103
-0.047975
-0.0479419
-0.0482568
-0.0489468
-0.0500145
-0.0514329
-0.0531416
-0.0550454
-0.0570146
-0.0588884
-0.0604813
-0.0615919
-0.0620145
-0.0615532
-0.0600359
-0.0573302
-0.0533571
-0.0481032
-0.0416298
-0.0340772
-0.0256647
-0.0166845
-0.00749047
0.00151852
0.00991947
0.0172895
0.0232321
0.0274029
0.0295347
0.0294584
0.0271186
0.0225836
0.0160469
0.00782158
-0.00167432
-0.0119393
-0.0224165
-0.0325274
-0.0417075
-0.049444
-0.0553112
-0.0590035
-0.0603608
-0.0593876
-0.0562617
-0.0513324
-0.045107
-0.0382266
-0.0314293
-0.0255058
-0.0212459
-0.0193811
-0.0205261
-0.0251232
-0.0333926
-0.0452956
-0.0605111
-0.0784314
-0.0981773
-0.118635
-0.138512
-0.156414
-0.17093
-0.180732
-0.184668
-0.181857
-0.171764
-0.154256
-0.129627
-0.0986036
-0.0623036
-0.0221787
0.0200758
0.062627
0.103621
0.1413
0.17411
0.200796
0.220469
0.232647
0.237271
0.234687
0.225605
0.211035
0.192209
0.170492
0.147293
0.123976
0.101785
0.0817804
0.0647939
0.051401
0.0419134
0.0363889
0.0346555
0.0363486
0.0409555
0.0478647
0.0564156
0.0659449
0.0758284
0.0855143
0.0945478
0.102587
0.109408
0.114904
0.119074
0.122009
0.123873
0.124879
0.125272
0.125307
0.125228
0.125259
0.125586
0.126356
0.127668
0.129579
0.132098
0.135197
0.138813
0.142855
0.147208
0.151743
0.156318
0.160784
0.164989
0.168779
0.172005
0.174519
0.176182
0.176863
0.176444
0.174818
0.1719
0.167623
0.161943
0.154846
0.146347
0.136492
0.125363
0.113074
0.0997753
0.0856453
0.0708914
0.0557437
0.0404479
0.0252586
0.0104312
-0.00378751
-0.0171672
-0.0295027
-0.0406213
-0.0503887
-0.0587136
-0.0655503
-0.070899
-0.0748046
-0.0773529
-0.0786654
-0.0788922
-0.0782045
-0.0767854
-0.0748218
-0.0724953
-0.0699749
-0.0674102
-0.0649266
-0.0626219
-0.0605651
-0.0587967
-0.0573314
-0.0561611
-0.0552602
-0.0545903
-0.054106
-0.0537598
-0.0535064
-0.0533062
-0.0531277
-0.0529482
-0.0527547
-0.0525421
-0.0523124
-0.0520722
-0.0518305
-0.0515969
-0.0513793
-0.0511831
-0.0510101
-0.0508589
-0.0507253
-0.0506034
-0.050487
-0.0503713
-0.0502543
-0.0501378
-0.0500284
-0.0499379
-0.0498826
-0.0498822
-0.0499588
-0.0501346
-0.0504295
-0.0508591
-0.0514323
-0.0521496
-0.0530018
-0.0539693
-0.0550229
-0.0561242
-0.0572284
-0.0582863
-0.0592478
-0.0600649
-0.0606954
-0.0611056
-0.0612729
-0.0611874
-0.0608533
-0.0602884
-0.0595239
-0.0586024
-0.0575759
-0.0565032
-0.0554464
-0.0544683
-0.0536288
-0.0529816
-0.0525719
-0.0524338
-0.052588
-0.0530408
-0.0537832
-0.0547903
-0.0560224
-0.0574256
-0.0589346
-0.0604743
-0.0619643
-0.063322
-0.0644674
-0.0653277
-0.0658418
-0.0659648
-0.065672
-0.0649617
-0.0638577
-0.0624095
-0.060692
-0.0588027
-0.0568582
-0.0549877
-0.0533267
-0.052008
-0.0511526
-0.0508607
-0.0512016
-0.0522062
-0.0538597
-0.0560977
-0.0588045
-0.0618148
-0.0649191
-0.0678728
-0.0704085
-0.072251
-0.0731349
-0.0728228
-0.0711239
-0.0679105
-0.0631325
-0.0568274
-0.049126
-0.0402516
-0.0305138
-0.0202956
-0.0100358
-0.000205477
0.00871788
0.0162792
0.022074
0.0257757
0.0271582
0.0261148
0.0226685
0.0169766
0.00932483
0.000115124
-0.0101561
-0.0209256
-0.0315968
-0.0415765
-0.0503132
-0.0573343
-0.0622802
-0.0649324
-0.0652341
-0.0633017
-0.0594246
-0.0540545
-0.0477818
-0.0413021
-0.0353723
-0.0307587
-0.0281813
-0.028256
-0.0314396
-0.0379816
-0.0478863
-0.0608893
-0.0764515
-0.0937723
-0.111822
-0.129396
-0.145183
-0.157847
-0.166121
-0.168899
-0.165322
-0.154852
-0.137332
-0.113012
-0.0825543
-0.0470044
-0.00773597
0.0336307
0.0753291
0.115557
0.152593
0.184897
0.21121
0.230622
0.242613
0.247078
0.244306
0.234953
0.219974
0.200557
0.178033
0.153791
0.129192
0.105492
0.0837827
0.0649382
0.0495887
0.0381077
0.0306178
0.0270109
0.0269812
0.0300664
0.0356948
0.0432328
0.0520312
0.0614659
0.0709724
0.0800715
0.0883859
0.0956483
0.101701
0.106487
0.110041
0.11247
0.113935
0.114633
0.11478
0.114596
0.11429
0.114049
0.114035
0.114379
0.115179
0.116498
0.11837
0.120798
0.123761
0.12721
0.131077
0.135275
0.139699
0.144226
0.148722
0.153039
0.157018
0.160493
0.163292
0.165244
0.166184
0.165955
0.16442
0.161464
0.157003
0.15099
0.143422
0.134339
0.123829
0.112028
0.0991143
0.0853082
0.070861
0.0560477
0.0411568
0.0264791
0.0122956
-0.00113256
-0.0135751
-0.0248408
-0.0347838
-0.0433081
-0.0503688
-0.0559712
-0.0601669
-0.0630487
-0.0647428
-0.0654002
-0.0651879
-0.0642793
-0.062846
-0.0610499
-0.0590373
-0.0569347
-0.0548456
-0.0528499
-0.0510046
-0.0493456
-0.0478905
-0.0466425
-0.0455935
-0.0447286
-0.0440288
-0.0434742
-0.0430462
-0.0427289
-0.0425096
-0.0423794
-0.0423322
-0.0423637
-0.0424703
-0.0426478
-0.0428903
-0.0431887
-0.0435312
-0.0439023
-0.044284
-0.0446568
-0.0450007
-0.0452972
-0.0455308
-0.0456909
-0.0457725
-0.0457778
-0.0457158
-0.0456025
-0.0454595
-0.0453129
-0.0451911
-0.0451231
-0.0451355
-0.0452513
-0.045487
-0.0458523
-0.0463482
-0.0469676
-0.0476953
-0.0485092
-0.0493821
-0.0502835
-0.0511818
-0.0520466
-0.0528505
-0.0535711
-0.0541917
-0.0547021
-0.0550982
-0.0553819
-0.0555595
-0.0556409
-0.0556377
-0.0555623
-0.0554262
-0.0552399
-0.0550122
-0.0547506
-0.0544623
-0.0541555
-0.0538408
-0.053533
-0.0532528
-0.0530278
-0.0528929
-0.0528901
-0.0530669
-0.0534733
-0.0541584
-0.0551655
-0.0565263
-0.0582552
-0.0603436
-0.0627552
-0.065422
-0.0682428
-0.0710836
-0.0737806
-0.0761464
-0.0779779
-0.0790679
-0.0792175
-0.0782504
-0.0760273
-0.0724594
-0.0675208
-0.0612574
-0.0537924
-0.0453272
-0.0361374
-0.0265631
-0.0169946
-0.00785329
0.000430487
0.00744243
0.0128096
0.0162248
0.0174688
0.0164275
0.0131039
0.00762342
0.000231523
-0.00871627
-0.0187715
-0.0294167
-0.040094
-0.0502385
-0.0593124
-0.0668396
-0.0724381
-0.0758479
-0.0769526
-0.0757944
-0.0725783
-0.0676678
-0.0615696
-0.0549079
-0.0483894
-0.0427594
-0.0387526
-0.0370389
-0.0381699
-0.042528
-0.050282
-0.0613544
-0.0754025
-0.091816
-0.109735
-0.128087
-0.14564
-0.161079
-0.173085
-0.180432
-0.182073
-0.177228
-0.165451
-0.146686
-0.121286
-0.0900104
-0.053989
-0.014661
0.0263134
0.0671565
0.106087
0.141431
0.17173
0.195829
0.212936
0.222667
0.225049
0.220507
0.20981
0.194015
0.174379
0.152274
0.129095
0.106175
0.0847108
0.0657016
0.0499092
0.0378335
0.0297095
0.0255209
0.0250283
0.0278089
0.0333044
0.0408708
0.0498294
0.0595134
0.069308
0.0786831
0.0872153
0.094601
0.10066
0.105329
0.108651
0.110758
0.111847
0.11216
0.111961
0.111515
0.111067
0.110834
0.110988
0.111656
0.112915
0.114793
0.117279
0.120323
0.12385
0.127762
0.131951
0.136305
0.140706
0.145043
0.149203
0.153077
0.156558
0.159534
0.161892
0.163513
0.164272
0.164043
0.1627
0.160123
0.156203
0.150854
0.144017
0.13567
0.125832
0.114572
0.102008
0.0883057
0.0736805
0.0583863
0.0427094
0.0269569
0.0114446
-0.0035164
-0.0176325
-0.0306402
-0.0423169
-0.0524897
-0.0610412
-0.0679124
-0.0731037
-0.0766711
-0.0787214
-0.079404
-0.0789017
-0.0774202
-0.0751771
-0.0723908
-0.0692712
-0.0660102
-0.0627752
-0.059704
-0.0569015
-0.0544392
-0.0523562
-0.0506617
-0.0493401
-0.0483557
-0.0476588
-0.0471925
-0.0468978
-0.0467196
-0.0466108
-0.0465353
-0.04647
-0.046405
-0.0463428
-0.0462963
-0.0462859
-0.0463362
-0.0464727
-0.0467179
-0.0470892
-0.047596
-0.0482385
-0.0490067
-0.0498808
-0.0508319
-0.0518232
-0.0528121
-0.0537525
-0.0545975
-0.055302
-0.0558255
-0.056135
-0.0562069
-0.0560298
-0.0556051
-0.0549485
-0.0540895
-0.0530708
-0.0519465
-0.0507796
-0.0496391
-0.0485959
-0.047719
-0.0470716
-0.0467067
-0.0466643
-0.0469674
-0.047621
-0.0486103
-0.0499007
-0.0514392
-0.0531566
-0.0549708
-0.0567911
-0.0585239
-0.0600775
-0.0613686
-0.0623277
-0.062904
-0.0630701
-0.0628242
-0.0621923
-0.0612276
-0.0600089
-0.0586365
-0.057227
-0.0559057
-0.0547988
-0.0540233
-0.0536781
-0.0538342
-0.0545263
-0.0557464
-0.0574396
-0.0595027
-0.0617861
-0.0640997
-0.0662217
-0.0679111
-0.0689223
-0.0690221
-0.0680068
-0.06572
-0.0620674
-0.0570306
-0.0506748
-0.0431538
-0.0347073
-0.025654
-0.0163779
-0.00730905
0.00109924
0.00839715
0.0141663
0.0180476
0.019767
0.0191568
0.0161722
0.0108998
0.00355885
-0.00550635
-0.0158421
-0.026909
-0.0381117
-0.048834
-0.0584769
-0.0664972
-0.0724445
-0.0759952
-0.0769787
-0.0753975
-0.0714358
-0.0654584
-0.0579973
-0.0497264
-0.0414254
-0.0339336
-0.0280957
-0.0247033
-0.0244334
-0.0277912
-0.0350577
-0.046249
-0.0610905
-0.0790087
-0.0991437
-0.120383
-0.141416
-0.160807
-0.177088
-0.188847
-0.19484
-0.194076
-0.185906
-0.170083
-0.146796
-0.116682
-0.0807937
-0.0405439
0.00237654
0.0461053
0.0887261
0.128389
0.163427
0.192454
0.214447
0.228792
0.235313
0.234262
0.226279
0.212342
0.193681
0.171694
0.147851
0.123602
0.100292
0.079093
0.0609463
0.0465296
0.036241
0.0302034
0.028285
0.0301345
0.0352257
0.0429096
0.0524677
0.0631643
0.0742943
0.0852231
0.0954178
0.104468
0.112098
0.118164
0.122649
0.125648
0.127345
0.127991
0.127875
0.127307
0.126588
0.125993
0.125759
0.126072
0.127063
0.128804
0.131314
0.134558
0.138462
0.142912
0.147768
0.15287
0.158042
0.163105
0.167877
0.172177
0.175833
0.178681
0.180571
0.181365
0.180945
0.17921
0.176084
0.171514
0.165474
0.157969
0.149034
0.138741
0.127193
0.114529
0.100921
0.0865695
0.0717007
0.0565596
0.0414025
0.0264887
0.0120709
-0.00161411
-0.0143545
-0.0259717
-0.0363264
-0.0453236
-0.0529146
-0.0590964
-0.0639095
-0.0674326
-0.0697762
-0.0710751
-0.0714793
-0.0711462
-0.0702324
-0.0688873
-0.0672472
-0.0654321
-0.0635433
-0.0616627
-0.0598536
-0.0581624
-0.0566206
-0.0552474
-0.0540522
-0.0530368
-0.0521973
-0.0515252
-0.0510087
-0.0506332
-0.0503813
-0.0502335
-0.0501684
-0.0501629
-0.0501933
-0.0502358
-0.0502677
-0.0502689
-0.0502232
-0.0501191
-0.0499516
-0.049722
-0.0494393
-0.049119
-0.0487832
-0.0484591
-0.0481771
-0.0479696
-0.0478681
-0.0479013
-0.0480931
-0.0484606
-0.0490129
-0.0497501
-0.0506631
-0.0517343
-0.0529382
-0.0542433
-0.0556139
-0.0570122
-0.0584006
-0.0597435
-0.0610089
-0.0621695
-0.0632033
-0.0640939
-0.0648295
-0.0654029
-0.0658101
-0.0660492
-0.0661203
-0.0660238
-0.0657611
-0.0653344
-0.0647475
-0.0640069
-0.0631233
-0.0621133
-0.0610013
-0.0598208
-0.0586157
-0.0574406
-0.0563606
-0.0554492
-0.0547859
-0.0544515
-0.0545232
-0.0550682
-0.0561367
-0.0577552
-0.0599199
-0.0625914
-0.0656911
-0.0690999
-0.0726592
-0.0761754
-0.0794269
-0.0821743
-0.0841732
-0.0851883
-0.0850097
-0.0834683
-0.0804507
-0.0759122
-0.0698863
-0.0624901
-0.0539249
-0.0444718
-0.0344812
-0.0243578
-0.0145409
-0.00548122
0.00238456
0.00865971
0.0130125
0.0151987
0.0150793
0.0126336
0.00796473
0.00129823
-0.00702708
-0.0165756
-0.0268382
-0.037261
-0.0472782
-0.0563474
-0.0639842
-0.0697963
-0.0735118
-0.0750026
-0.0742997
-0.0715985
-0.0672544
-0.0617675
-0.0557562
-0.0499214
-0.0450014
-0.0417208
-0.0407361
-0.0425803
-0.0476112
-0.0559682
-0.0675387
-0.081941
-0.0985248
-0.11639
-0.134429
-0.151382
-0.165916
-0.17671
-0.182551
-0.182423
-0.175595
-0.16169
-0.14073
-0.113157
-0.0798239
-0.0419508
-0.00105758
0.0411297
0.0827876
0.122111
0.157429
0.187307
0.210632
0.226673
0.235114
0.236053
0.229982
0.217732
0.200406
0.179298
0.1558
0.131316
0.107178
0.0845758
0.0644998
0.0477029
0.0346808
0.02567
0.0206628
0.0194343
0.021582
0.0265695
0.0337751
0.0425385
0.0522044
0.0621607
0.0718682
0.0808825
0.0888672
0.0955987
0.100963
0.104948
0.107627
0.109148
0.109707
0.109535
0.108881
0.10799
0.107095
0.106407
0.1061
0.106313
0.107145
0.108652
0.110852
0.113724
0.117213
0.121233
0.125672
0.130393
0.135243
0.140057
0.144655
0.148858
0.152481
0.155345
0.157278
0.158119
0.157726
0.155978
0.152779
0.148067
0.141815
0.134034
0.124778
0.114147
0.102282
0.0893656
0.0756168
0.0612852
0.0466424
0.0319722
0.0175598
0.00368102
-0.00940878
-0.0214845
-0.0323597
-0.0418931
-0.0499925
-0.0566161
-0.0617718
-0.0655135
-0.0679354
-0.0691648
-0.0693535
-0.068669
-0.067285
-0.0653731
-0.0630949
-0.0605962
-0.0580021
-0.0554142
-0.0529098
-0.0505425
-0.0483444
-0.0463292
-0.0444967
-0.042837
-0.0413351
-0.0399751
-0.0387436
-0.0376326
-0.036641
-0.0357749
-0.0350477
-0.0344781
-0.0340882
-0.0339009
-0.0339368
-0.0342118
-0.0347339
-0.0355018
-0.0365031
-0.0377139
-0.0390991
-0.040614
-0.0422056
-0.0438161
-0.0453854
-0.0468551
-0.0481717
-0.0492903
-0.0501773
-0.0508127
-0.0511917
-0.051325
-0.0512384
-0.0509712
-0.0505736
-0.0501031
-0.0496211
-0.049188
-0.0488592
-0.0486808
-0.0486862
-0.0488934
-0.0493034
-0.0498998
-0.0506499
-0.0515072
-0.0524145
-0.0533088
-0.0541264
-0.0548082
-0.0553053
-0.055584
-0.0556293
-0.0554485
-0.0550713
-0.0545502
-0.0539573
-0.0533806
-0.0529178
-0.0526693
-0.0527298
-0.0531799
-0.0540777
-0.0554509
-0.0572906
-0.0595469
-0.0621266
-0.0648946
-0.0676768
-0.0702679
-0.0724407
-0.0739588
-0.074591
-0.0741271
-0.0723937
-0.0692702
-0.0647013
-0.0587082
-0.0513946
-0.0429488
-0.0336396
-0.0238076
-0.0138499
-0.004201
0.00469034
0.0123872
0.0184913
0.0226683
0.0246717
0.0243611
0.0217155
0.0168391
0.00995942
0.001418
-0.0083469
-0.0188241
-0.0294584
-0.0396841
-0.0489591
-0.0567996
-0.0628123
-0.0667224
-0.0683946
-0.067848
-0.0652603
-0.0609637
-0.0554303
-0.0492471
-0.043083
-0.0376472
-0.0336421
-0.0317127
-0.0323957
-0.0360714
-0.042922
-0.0528998
-0.0657084
-0.0807994
-0.0973867
-0.114479
-0.130929
-0.1455
-0.156943
-0.16408
-0.165894
-0.161606
-0.150747
-0.133209
-0.10927
-0.0795997
-0.0452283
-0.00749291
0.0320412
0.071677
0.109693
0.14445
0.1745
0.198663
0.216107
0.226378
0.229423
0.225573
0.215506
0.200189
0.180804
0.158665
0.135131
0.111524
0.0890546
0.0687597
0.051457
0.0377177
0.0278564
0.021938
0.0197999
0.0210861
0.0252898
0.0318011
0.0399559
0.0490827
0.0585449
0.0677754
0.0763033
0.0837711
0.0899425
0.0947015
0.0980439
0.100063
0.100931
0.100875
0.100157
0.0990539
0.0978321
0.0967365
0.0959759
0.0957151
0.0960706
0.0971105
0.0988569
0.101291
0.104361
0.107986
0.112067
0.116491
0.121135
0.125872
0.130572
0.135102
0.139326
0.143108
0.146307
0.148778
0.150378
0.150962
0.150391
0.148535
0.145283
0.140546
0.134264
0.126421
0.117039
0.106192
0.0940045
0.0806509
0.0663527
0.0513724
0.0360047
0.0205658
0.00538029
-0.00923207
-0.0229703
-0.035565
-0.04679
-0.0564718
-0.0644954
-0.0708084
-0.0754206
-0.0784011
-0.0798717
-0.0799986
-0.0789818
-0.0770435
-0.0744155
-0.0713282
-0.0679996
-0.0646259
-0.061375
-0.0583813
-0.0557433
-0.053524
-0.051752
-0.0504257
-0.0495184
-0.0489837
-0.0487617
-0.0487854
-0.0489863
-0.0492987
-0.049664
-0.050033
-0.0503675
-0.0506408
-0.050837
-0.0509497
-0.0509807
-0.0509383
-0.0508346
-0.0506846
-0.0505042
-0.0503091
-0.0501136
-0.0499299
-0.0497673
-0.0496321
-0.0495274
-0.0494525
-0.0494038
-0.0493748
-0.0493567
-0.0493397
-0.0493136
-0.0492699
-0.0492024
-0.0491089
-0.0489922
-0.0488606
-0.0487287
-0.0486162
-0.0485477
-0.0485504
-0.0486527
-0.048881
-0.0492576
-0.0497976
-0.0505068
-0.0513795
-0.0523978
-0.0535309
-0.0547365
-0.0559622
-0.057149
-0.0582351
-0.0591603
-0.0598711
-0.0603258
-0.0604987
-0.0603844
-0.0599997
-0.0593849
-0.058603
-0.0577367
-0.0568839
-0.0561509
-0.0556446
-0.0554634
-0.0556882
-0.0563726
-0.0575356
-0.059155
-0.0611637
-0.0634487
-0.0658536
-0.0681845
-0.0702195
-0.0717206
-0.0724491
-0.0721813
-0.0707262
-0.0679415
-0.0637488
-0.0581448
-0.0512097
-0.0431099
-0.0340951
-0.0244905
-0.0146831
-0.00510242
0.00380174
0.0115849
0.0178348
0.022197
0.0243996
0.0242728
0.0217638
0.0169454
0.0100163
0.00129479
-0.00879522
-0.0197458
-0.0309915
-0.0419415
-0.0520131
-0.060668
-0.0674458
-0.0719961
-0.0741049
-0.0737142
-0.0709344
-0.066046
-0.0594928
-0.0518623
-0.0438577
-0.0362586
-0.0298743
-0.0254907
-0.023814
-0.0254144
-0.0306734
-0.0397397
-0.0524965
-0.0685436
-0.0871991
-0.10752
-0.128342
-0.148343
-0.166117
-0.180266
-0.189493
-0.192698
-0.189064
-0.17813
-0.159837
-0.134554
-0.103068
-0.066547
-0.0264714
0.0154546
0.0574101
0.0975733
0.134235
0.165902
0.191388
0.209875
0.220948
0.224608
0.221247
0.21161
0.196724
0.177823
0.156256
0.133406
0.110602
0.089042
0.0697419
0.0534873
0.0408122
0.0319932
0.027061
0.0258264
0.0279171
0.0328223
0.0399407
0.0486289
0.058246
0.0681928
0.0779437
0.0870683
0.0952458
0.102268
0.108039
0.11256
0.115919
0.118269
0.119812
0.120775
0.121394
0.121897
0.12249
0.123348
0.124608
0.126364
0.128669
0.131533
0.134931
0.138802
0.143058
0.147586
0.152257
0.156929
0.16145
0.165663
0.169409
0.172531
0.174877
0.176298
0.176656
0.175827
0.173701
0.170186
0.165218
0.158757
0.150799
0.141373
0.130551
0.118442
0.105199
0.0910141
0.0761137
0.0607539
0.0452118
0.0297752
0.0147322
0.000358795
-0.0130919
-0.0254007
-0.036391
-0.0459357
-0.0539613
-0.0604488
-0.0654327
-0.0689956
-0.0712625
-0.0723912
-0.072563
-0.0719717
-0.0708135
-0.0692773
-0.0675356
-0.0657386
-0.0640082
-0.0624361
-0.0610821
-0.0599758
-0.0591188
-0.0584889
-0.058045
-0.0577326
-0.0574897
-0.0572524
-0.0569603
-0.0565608
-0.056013
-0.0552905
-0.0543827
-0.0532954
-0.05205
-0.0506817
-0.0492371
-0.0477711
-0.0463429
-0.0450127
-0.0438378
-0.0428695
-0.0421499
-0.0417103
-0.0415695
-0.0417334
-0.0421948
-0.0429345
-0.0439227
-0.0451205
-0.0464821
-0.0479571
-0.049493
-0.0510372
-0.0525393
-0.0539532
-0.0552388
-0.0563634
-0.0573027
-0.0580417
-0.0585746
-0.0589047
-0.0590438
-0.0590113
-0.0588326
-0.0585379
-0.0581602
-0.0577334
-0.0572905
-0.0568615
-0.0564717
-0.0561401
-0.055878
-0.0556878
-0.0555634
-0.0554896
-0.0554434
-0.0553956
-0.0553131
-0.0551617
-0.0549094
-0.0545302
-0.0540072
-0.0533364
-0.0525284
-0.0516109
-0.0506281
-0.0496406
-0.0487223
-0.0479566
-0.0474308
-0.04723
-0.0474291
-0.0480858
-0.0492328
-0.0508712
-0.0529649
-0.0554379
-0.0581725
-0.0610118
-0.0637645
-0.0662123
-0.0681215
-0.0692551
-0.0693884
-0.0683245
-0.06591
-0.0620493
-0.0567171
-0.049967
-0.0419364
-0.032846
-0.0229949
-0.0127488
-0.00252516
0.00722784
0.0160543
0.0235165
0.0292206
0.0328423
0.0341482
0.0330143
0.0294382
0.0235441
0.0155815
0.00591564
-0.00498965
-0.016595
-0.0283147
-0.0395498
-0.0497231
-0.0583151
-0.064898
-0.0691653
-0.0709566
-0.0702744
-0.0672921
-0.0623519
-0.0559522
-0.0487245
-0.0413989
-0.0347621
-0.0296065
-0.0266758
-0.0266083
-0.0298819
-0.036766
-0.0472821
-0.0611792
-0.0779251
-0.0967178
-0.116517
-0.136093
-0.154102
-0.169162
-0.179951
-0.1853
-0.184283
-0.176299
-0.161124
-0.138954
-0.110399
-0.0764672
-0.0385015
0.00189799
0.0429763
0.0829354
0.12005
0.152773
0.179834
0.200306
0.213653
0.219749
0.218863
0.211627
0.198972
0.18206
0.162191
0.140721
0.118976
0.0981733
0.0793595
0.0633647
0.0507726
0.0419106
0.0368568
0.0354622
0.0373851
0.0421334
0.0491126
0.0576742
0.0671621
0.0769538
0.0864949
0.0953245
0.103092
0.109564
0.114626
0.118269
0.120582
0.121731
0.121937
0.121458
0.120568
0.119535
0.118609
0.118009
0.11791
0.11844
0.119681
0.121662
0.12437
0.12775
0.131712
0.136138
0.140888
0.145806
0.150726
0.155476
0.159881
0.163769
0.166969
0.169319
0.170664
0.170863
0.16979
0.167337
0.163421
0.157987
0.151013
0.142513
0.132542
0.121196
0.108612
0.0949707
0.0804858
0.0654033
0.0499919
0.0345339
0.0193148
0.00461247
-0.00931373
-0.0222329
-0.0339511
-0.0443186
-0.0532336
-0.0606446
-0.0665498
-0.0709937
-0.0740617
-0.0758734
-0.0765743
-0.0763268
-0.0753014
-0.0736688
-0.0715924
-0.0692224
-0.0666914
-0.0641121
-0.0615758
-0.0591526
-0.0568928
-0.0548293
-0.0529798
-0.0513501
-0.0499369
-0.0487301
-0.0477155
-0.0468764
-0.0461948
-0.0456532
-0.0452344
-0.0449228
-0.0447045
-0.0445676
-0.0445027
-0.0445026
-0.0445627
-0.0446809
-0.0448568
-0.0450918
-0.0453883
-0.0457491
-0.0461764
-0.0466715
-0.0472338
-0.0478603
-0.0485452
-0.0492798
-0.0500519
-0.0508463
-0.0516445
-0.0524256
-0.0531663
-0.0538422
-0.0544288
-0.0549025
-0.0552424
-0.0554317
-0.055459
-0.0553205
-0.0550204
-0.0545722
-0.0539989
-0.0533327
-0.0526144
-0.051891
-0.0512145
-0.0506383
-0.0502147
-0.0499915
-0.0500085
-0.0502948
-0.0508661
-0.0517227
-0.0528486
-0.0542109
-0.0557609
-0.0574356
-0.0591602
-0.060852
-0.0624244
-0.0637918
-0.0648745
-0.0656039
-0.0659278
-0.0658143
-0.0652555
-0.0642698
-0.0629029
-0.0612269
-0.0593378
-0.0573514
-0.0553968
-0.0536094
-0.0521217
-0.0510546
-0.0505076
-0.0505501
-0.0512138
-0.0524869
-0.0543106
-0.0565788
-0.0591401
-0.061804
-0.0643495
-0.0665368
-0.068121
-0.068868
-0.06857
-0.0670615
-0.0642339
-0.0600471
-0.0545379
-0.0478245
-0.040105
-0.0316517
-0.0227996
-0.0139307
-0.00545323
0.00222097
0.0087013
0.0136431
0.0167705
0.0178967
0.0169383
0.0139253
0.00900264
0.0024257
-0.00545211
-0.0141984
-0.0233265
-0.0323251
-0.04069
-0.0479575
-0.0537366
-0.0577377
-0.0597968
-0.0598929
-0.0581571
-0.0548724
-0.0504633
-0.0454752
-0.0405442
-0.036357
-0.033605
-0.0329326
-0.0348845
-0.0398545
-0.0480398
-0.0594055
-0.0736611
-0.090254
-0.108381
-0.12702
-0.144979
-0.160963
-0.173656
-0.18181
-0.184336
-0.180392
-0.169457
-0.151388
-0.126455
-0.0953365
-0.059102
-0.01915
0.0228721
0.065169
0.105911
0.143351
0.175932
0.202382
0.22179
0.233648
0.237869
0.234776
0.225065
0.209738
0.19003
0.167318
0.14303
0.11856
0.0951813
0.0739893
0.0558476
0.0413608
0.0308642
0.0244314
0.0218988
0.0229018
0.0269201
0.0333284
0.0414476
0.0505939
0.0601219
0.0694602
0.0781379
0.085801
0.0922193
0.0972841
0.100998
0.103461
0.104846
0.105381
0.105327
0.104949
0.104506
0.104229
0.104311
0.104897
0.106084
0.107917
0.110393
0.113469
0.117063
0.121069
0.125362
0.129803
0.134251
0.138566
0.142612
0.146262
0.149397
0.151911
0.153702
0.154681
0.154765
0.153878
0.151953
0.148931
0.144765
0.139422
0.132887
0.125165
0.11629
0.106322
0.0953565
0.0835194
0.0709709
0.0579012
0.0445257
0.0310792
0.0178066
0.00495403
-0.00724178
-0.0185637
-0.028824
-0.0378723
-0.0456023
-0.0519558
-0.0569238
-0.0605455
-0.0629044
-0.0641218
-0.0643492
-0.0637585
-0.0625327
-0.0608552
-0.0589013
-0.0568299
-0.0547771
-0.0528518
-0.0511335
-0.0496713
-0.048486
-0.0475727
-0.0469054
-0.0464419
-0.0461294
-0.0459107
-0.0457291
-0.0455335
-0.0452823
-0.0449463
-0.0445101
-0.0439732
-0.0433486
-0.0426615
-0.041947
-0.0412463
-0.0406038
-0.0400632
-0.0396642
-0.0394394
-0.0394122
-0.0395953
-0.0399895
-0.0405844
-0.0413591
-0.042284
-0.0433226
-0.0444339
-0.0455752
-0.0467038
-0.0477798
-0.0487674
-0.0496365
-0.0503637
-0.0509334
-0.0513377
-0.0515768
-0.0516594
-0.0516013
-0.0514259
-0.0511621
-0.0508439
-0.0505082
-0.0501929
-0.049935
-0.0497679
-0.0497192
-0.0498083
-0.050045
-0.0504276
-0.0509428
-0.0515661
-0.0522625
-0.052989
-0.053698
-0.0543402
-0.0548695
-0.055247
-0.0554452
-0.0554511
-0.0552694
-0.0549236
-0.054456
-0.0539262
-0.0534079
-0.0529841
-0.0527415
-0.0527629
-0.0531201
-0.053866
-0.055027
-0.0565972
-0.0585329
-0.0607505
-0.0631263
-0.0654989
-0.0676754
-0.0694405
-0.0705677
-0.0708339
-0.0700344
-0.0679993
-0.0646091
-0.0598082
-0.0536159
-0.0461332
-0.0375447
-0.028115
-0.0181798
-0.00813166
0.00159962
0.0105695
0.0183439
0.0245253
0.0287782
0.0308512
0.0305959
0.0279799
0.0230934
0.0161483
0.00747035
-0.00251656
-0.0133119
-0.0243658
-0.0351104
-0.0449936
-0.0535122
-0.060245
-0.0648811
-0.0672441
-0.0673082
-0.0652069
-0.0612322
-0.0558239
-0.0495488
-0.0430704
-0.03711
-0.0324009
-0.0296375
-0.0294236
-0.0322208
-0.038303
-0.047719
-0.0602674
-0.0754868
-0.0926635
-0.110857
-0.128947
-0.145689
-0.159799
-0.170028
-0.175258
-0.174586
-0.167394
-0.153416
-0.132769
-0.105965
-0.0738928
-0.0377729
0.000914677
0.0405214
0.0793335
0.115681
0.148041
0.175132
0.195985
0.209998
0.216954
0.217024
0.21073
0.198906
0.18262
0.163101
0.141654
0.119579
0.0980919
0.0782634
0.0609681
0.0468517
0.0363157
0.0295195
0.0263966
0.0266845
0.0299625
0.0356962
0.0432838
0.0521004
0.0615395
0.0710471
0.0801486
0.0884668
0.0957315
0.101781
0.106555
0.110087
0.112483
0.11391
0.114572
0.114693
0.114503
0.11422
0.114041
0.114132
0.114626
0.115616
0.117162
0.119285
0.121978
0.125205
0.128906
0.133001
0.137394
0.141973
0.146614
0.151181
0.155528
0.159498
0.162929
0.165651
0.167492
0.168285
0.167868
0.166093
0.162834
0.157992
0.151505
0.143352
0.133559
0.122205
0.109419
0.0953838
0.0803283
0.0645236
0.048273
0.0319016
0.0157431
0.000127323
-0.0146341
-0.0282599
-0.0405107
-0.0511981
-0.0601912
-0.0674199
-0.0728758
-0.0766088
-0.0787224
-0.0793654
-0.078723
-0.0770058
-0.074439
-0.0712522
-0.0676686
-0.0638972
-0.0601252
-0.0565128
-0.0531901
-0.0502552
-0.0477741
-0.0457828
-0.0442894
-0.0432783
-0.0427138
-0.0425451
-0.0427108
-0.0431433
-0.0437731
-0.0445323
-0.0453579
-0.0461944
-0.046995
-0.0477234
-0.0483537
-0.0488702
-0.049267
-0.0495466
-0.0497188
-0.0497983
-0.0498041
-0.0497566
-0.0496772
-0.0495858
-0.0495004
-0.049436
-0.0494037
-0.0494105
-0.0494595
-0.0495498
-0.0496774
-0.0498356
-0.050016
-0.0502097
-0.0504084
-0.0506053
-0.0507965
-0.0509813
-0.0511632
-0.0513499
-0.0515531
-0.0517881
-0.0520727
-0.0524257
-0.0528655
-0.0534081
-0.0540657
-0.0548442
-0.055743
-0.0567532
-0.0578578
-0.0590316
-0.0602427
-0.0614532
-0.0626215
-0.0637041
-0.0646577
-0.0654413
-0.066018
-0.0663564
-0.0664323
-0.0662295
-0.065741
-0.0649694
-0.063928
-0.0626413
-0.0611455
-0.0594889
-0.0577316
-0.055945
-0.0542107
-0.0526173
-0.0512581
-0.0502258
-0.0496077
-0.0494791
-0.0498963
-0.0508907
-0.0524613
-0.0545705
-0.0571394
-0.0600474
-0.0631329
-0.0661976
-0.0690145
-0.071338
-0.0729173
-0.073512
-0.0729083
-0.070936
-0.0674842
-0.0625143
-0.0560703
-0.048284
-0.039375
-0.0296449
-0.0194663
-0.00926566
0.000498269
0.00935903
0.0168697
0.02263
0.0263127
0.0276861
0.0266325
0.0231601
0.0174077
0.00964184
0.000245331
-0.0103014
-0.0214461
-0.0325966
-0.0431555
-0.0525581
-0.0603088
-0.0660159
-0.0694208
-0.0704208
-0.0690831
-0.0656485
-0.0605246
-0.0542674
-0.0475522
-0.0411337
-0.0357991
-0.0323136
-0.0313645
-0.0335048
-0.0391013
-0.0482911
-0.0609504
-0.0766783
-0.0947992
-0.114385
-0.134294
-0.153238
-0.169852
-0.182782
-0.190785
-0.192815
-0.18811
-0.176256
-0.157241
-0.131466
-0.0997438
-0.0632496
-0.0234606
0.0179369
0.059153
0.098407
0.134039
0.164611
0.188993
0.206419
0.216525
0.219353
0.215328
0.205216
0.190056
0.171081
0.149635
0.127086
0.104741
0.0837769
0.0651849
0.0497277
0.0379187
0.0300165
0.0260372
0.0257795
0.0288609
0.034761
0.0428684
0.0525277
0.0630837
0.0739205
0.0844929
0.0943501
0.10315
0.110667
0.116787
0.121501
0.124892
0.127118
0.128387
0.128945
0.129051
0.128958
0.128904
0.129097
0.129704
0.13085
0.132612
0.135023
0.138072
0.14171
0.145852
0.150387
0.15518
0.160079
0.16492
0.169533
0.173743
0.177377
0.180266
0.182248
0.183173
0.182905
0.181327
0.178342
0.173883
0.167908
0.160412
0.151426
0.141019
0.129299
0.116415
0.102549
0.0879183
0.0727644
0.0573487
0.0419419
0.0268148
0.0122282
-0.00157702
-0.0143889
-0.0260314
-0.0363705
-0.045317
-0.0528277
-0.0589039
-0.0635882
-0.0669587
-0.0691232
-0.0702114
-0.0703673
-0.069742
-0.0684868
-0.0667469
-0.0646573
-0.0623387
-0.0598959
-0.0574164
-0.0549711
-0.0526151
-0.0503898
-0.048325
-0.0464413
-0.0447523
-0.0432664
-0.0419887
-0.0409213
-0.040064
-0.0394143
-0.0389671
-0.0387141
-0.0386434
-0.0387399
-0.0389844
-0.0393551
-0.039828
-0.0403781
-0.040981
-0.0416138
-0.0422565
-0.0428933
-0.0435126
-0.0441076
-0.0446762
-0.0452197
-0.0457427
-0.0462512
-0.0467517
-0.0472496
-0.0477481
-0.0482472
-0.0487429
-0.0492268
-0.0496863
-0.0501048
-0.0504628
-0.0507393
-0.0509127
-0.0509632
-0.0508738
-0.0506324
-0.0502331
-0.0496771
-0.0489736
-0.0481396
-0.0472002
-0.0461872
-0.0451383
-0.0440956
-0.0431033
-0.0422057
-0.0414455
-0.0408611
-0.0404846
-0.0403401
-0.0404423
-0.0407949
-0.0413909
-0.042212
-0.0432297
-0.0444064
-0.0456974
-0.0470536
-0.0484234
-0.0497562
-0.0510044
-0.0521261
-0.0530863
-0.0538587
-0.0544251
-0.054776
-0.0549089
-0.0548274
-0.0545398
-0.0540574
-0.0533939
-0.0525646
-0.0515869
-0.0504807
-0.0492699
-0.047984
-0.0466599
-0.0453429
-0.0440875
-0.0429575
-0.0420239
-0.0413624
-0.041049
-0.0411544
-0.0417375
-0.0428382
-0.0444704
-0.0466154
-0.0492166
-0.0521766
-0.0553565
-0.0585782
-0.0616307
-0.0642784
-0.0662741
-0.0673734
-0.0673514
-0.0660197
-0.0632437
-0.0589569
-0.0531733
-0.0459951
-0.0376144
-0.0283102
-0.0184381
-0.00841486
0.00130339
0.0102463
0.0179581
0.0240264
0.0281109
0.0299682
0.0294721
0.0266262
0.0215691
0.0145705
0.00601781
-0.00360503
-0.0137471
-0.0238253
-0.0332623
-0.0415269
-0.0481714
-0.0528659
-0.0554256
-0.0558296
-0.0542292
-0.0509453
-0.0464533
-0.041357
-0.0363513
-0.0321762
-0.0295643
-0.0291844
-0.0315853
-0.0371431
-0.0460167
-0.0581145
-0.0730763
-0.0902729
-0.108825
-0.127641
-0.145477
-0.161007
-0.172911
-0.179968
-0.181142
-0.175674
-0.163147
-0.143537
-0.117235
-0.0850408
-0.0481259
-0.00796732
0.0337402
0.0751907
0.114582
0.15023
0.180671
0.204753
0.221696
0.231129
0.233096
0.228037
0.216739
0.200269
0.179898
0.157006
0.132998
0.109216
0.0868702
0.0669735
0.050305
0.0373853
0.0284717
0.0235707
0.0224646
0.0247493
0.0298796
0.0372186
0.0460868
0.0558085
0.0657525
0.0753652
0.0841944
0.0919041
0.09828
0.103226
0.106755
0.108971
0.110051
0.110222
0.109741
0.108871
0.107866
0.106955
0.106329
0.106142
0.106498
0.107461
0.109055
0.111265
0.114052
0.117352
0.121084
0.125156
0.129466
0.133909
0.138371
0.142735
0.146877
0.150668
0.153972
0.156646
0.158545
0.159521
0.159431
0.15814
0.155526
0.151493
0.145972
0.138933
0.130388
0.120394
0.109061
0.0965468
0.0830532
0.0688239
0.0541333
0.0392765
0.0245571
0.0102744
-0.00329028
-0.0158847
-0.0272971
-0.0373635
-0.0459739
-0.0530741
-0.0586654
-0.0628004
-0.0655774
-0.0671316
-0.0676253
-0.0672379
-0.0661549
-0.0645582
-0.0626179
-0.0604848
-0.0582866
-0.0561242
-0.054072
-0.0521787
-0.0504704
-0.0489545
-0.0476247
-0.0464657
-0.0454579
-0.044582
-0.043822
-0.0431679
-0.0426161
-0.0421703
-0.0418396
-0.0416373
-0.0415781
-0.0416757
-0.0419402
-0.0423762
-0.0429809
-0.0437437
-0.0446463
-0.0456634
-0.0467643
-0.0479155
-0.0490827
-0.0502335
-0.0513397
-0.0523792
-0.0533367
-0.0542047
-0.0549825
-0.0556756
-0.0562934
-0.0568474
-0.0573491
-0.0578075
-0.0582281
-0.0586115
-0.0589534
-0.0592452
-0.0594752
-0.0596307
-0.0597003
-0.0596762
-0.0595564
-0.0593464
-0.0590599
-0.058719
-0.0583529
-0.0579963
-0.0576862
-0.0574586
-0.057345
-0.0573688
-0.0575423
-0.0578641
-0.0583187
-0.058876
-0.0594935
-0.0601191
-0.060695
-0.0611633
-0.0614713
-0.0615767
-0.0614532
-0.0610939
-0.0605146
-0.0597537
-0.0588719
-0.0579484
-0.0570758
-0.0563533
-0.0558786
-0.0557387
-0.0560011
-0.0567052
-0.0578545
-0.0594123
-0.0612976
-0.0633864
-0.065514
-0.0674829
-0.0690721
-0.0700501
-0.0701904
-0.0692877
-0.0671748
-0.0637384
-0.0589326
-0.0527899
-0.0454266
-0.0370441
-0.0279235
-0.0184159
-0.00892506
0.000112362
0.00825202
0.0150683
0.0201817
0.0232846
0.0241638
0.022719
0.0189736
0.0130793
0.00531207
-0.00394007
-0.0141969
-0.0249126
-0.0355079
-0.0454054
