-0.00140632
-0.00141884
-0.0013812
-0.00129574
-0.00116801
-0.00100646
-0.000821821
-0.000626364
-0.000432971
-0.000254182
-0.000101252
1.669e-005
9.33113e-005
0.000125524
0.000113676
6.14699e-005
-2.43822e-005
-0.000134738
-0.000258795
-0.000384979
-0.000501893
-0.000599237
-0.00066863
-0.000704276
-0.000703407
-0.000666493
-0.000597194
-0.000502085
-0.000390173
-0.000272269
-0.000160258
-6.63394e-005
-2.28284e-006
2.12504e-005
-4.71036e-006
-8.69851e-005
-0.000229915
-0.000435171
-0.000701691
-0.00102575
-0.00140111
-0.00181935
-0.00227015
-0.00274177
-0.0032215
-0.00369622
-0.00415289
-0.00457915
-0.00496386
-0.00529758
-0.00557309
-0.00578579
-0.00593397
-0.00601904
-0.00604556
-0.00602115
-0.00595623
-0.00586351
-0.00575745
-0.00565348
-0.0055671
-0.00551304
-0.00550427
-0.00555117
-0.00566081
-0.00583642
-0.00607711
-0.00637787
-0.00672982
-0.00712083
-0.00753629
-0.00796008
-0.00837566
-0.00876712
-0.00912019
-0.00942307
-0.00966708
-0.00984704
-0.0099614
-0.0100121
-0.0100044
-0.00994601
-0.00984691
-0.00971827
-0.0095718
-0.00941903
-0.00927057
-0.00913553
-0.00902103
-0.00893191
-0.00887048
-0.00883654
-0.00882746
-0.00883837
-0.00886256
-0.00889183
-0.00891698
-0.00892833
-0.00891624
-0.00887159
-0.0087863
-0.00865375
-0.00846912
-0.00822969
-0.00793501
-0.00758701
-0.00718997
-0.00675041
-0.00627686
-0.00577956
-0.00527007
-0.00476079
-0.00426444
-0.00379353
-0.0033598
-0.00297369
-0.00264383
-0.00237664
-0.00217602
-0.0020431
-0.00197618
-0.00197077
-0.00201971
-0.00211345
-0.00224045
-0.00238759
-0.00254074
-0.00268528
-0.00280675
-0.00289139
-0.00292672
-0.00290205
-0.00280889
-0.00264129
-0.00239606
-0.00207291
-0.00167447
-0.00120616
-0.000676075
-9.46416e-005
0.000525714
0.00117104
0.00182637
0.00247639
0.00310601
0.00370113
0.00424923
0.00474004
0.00516603
0.0055228
0.00580926
0.00602762
0.00618316
0.00628378
0.00633938
0.00636109
0.00636038
0.00634826
0.00633446
0.00632679
0.00633069
0.00634904
0.00638222
0.00642842
0.00648424
0.00654534
0.0066073
0.00666643
0.00672048
0.00676925
0.00681486
0.00686182
0.00691673
0.00698774
0.00708379
0.00721357
0.00738459
0.00760211
0.00786839
0.00818198
0.00853752
0.00892571
0.00933377
0.0097461
0.0101453
0.0105135
0.0108332
0.011089
0.0112685
0.0113631
0.0113687
0.0112859
0.01112
0.0108802
0.0105794
0.0102324
0.00985549
0.0094646
0.00907443
0.00869722
0.00834189
0.00801343
0.00771259
0.00743593
0.00717609
0.00692248
0.00666208
0.00638048
0.00606295
0.00569553
0.00526609
0.00476519
0.00418677
0.00352864
0.00279263
0.00198458
0.001114
0.000193519
-0.000761815
-0.00173541
-0.00271007
-0.00366894
-0.00459641
-0.00547893
-0.00630566
-0.00706894
-0.0077645
-0.0083916
-0.00895277
-0.00945355
-0.00990191
-0.0103077
-0.0106818
-0.0110357
-0.0113802
-0.0117252
-0.0120787
-0.0124463
-0.0128309
-0.0132327
-0.0136484
-0.014072
-0.0144951
-0.014907
-0.0152958
-0.0156492
-0.0159553
-0.0162036
-0.0163863
-0.0164986
-0.0165399
-0.0165139
-0.0164289
-0.0162977
-0.016137
-0.0159665
-0.0158079
-0.0156836
-0.0156152
-0.015622
-0.0157197
-0.0159192
-0.0162255
-0.0166373
-0.0171467
-0.0177391
-0.0183946
-0.0190882
-0.0197915
-0.0204746
-0.0211074
-0.0216614
-0.0221117
-0.0224382
-0.022627
-0.0226711
-0.0225709
-0.0223344
-0.0219766
-0.0215187
-0.020987
-0.0204112
-0.0198228
-0.0192535
-0.0187326
-0.0182862
-0.0179347
-0.0176923
-0.017566
-0.017555
-0.0176509
-0.0178388
-0.0180978
-0.0184024
-0.0187247
-0.0190358
-0.0193079
-0.0195157
-0.0196385
-0.0196606
-0.019573
-0.0193727
-0.0190636
-0.0186551
-0.0181617
-0.0176018
-0.0169956
-0.0163647
-0.0157297
-0.0151093
-0.0145193
-0.0139715
-0.0134735
-0.0130288
-0.0126366
-0.0122928
-0.0119906
-0.0117216
-0.0114765
-0.0112464
-0.0110229
-0.0107995
-0.0105713
-0.0103352
-0.0100898
-0.00983524
-0.00957227
-0.00930213
-0.00902589
-0.00874411
-0.00845657
-0.00816222
-0.00785925
-0.00754538
-0.00721829
-0.00687605
-0.0065177
-0.00614364
-0.00575599
-0.00535877
-0.00495788
-0.00456083
-0.00417623
-0.00381318
-0.00348044
-0.00318552
-0.00293388
-0.00272808
-0.00256728
-0.00244678
-0.00235811
-0.00228921
-0.00222514
-0.00214896
-0.00204298
-0.00189009
-0.00167521
-0.00138668
-0.00101748
-0.000566167
-3.75167e-005
0.00055738
0.00120141
0.00187226
0.00254361
0.0031868
0.00377268
0.00427364
0.00466559
0.00492978
0.00505434
0.00503527
0.00487694
0.004592
0.00420059
0.00372904
0.00320813
0.00267095
0.00215069
0.00167838
0.00128097
0.00097968
0.000788918
0.000715785
0.000760141
0.000915262
0.00116895
0.00150499
0.00190478
0.00234906
0.00281937
0.00329943
0.00377605
0.00423964
0.00468441
0.00510804
0.00551114
0.00589644
0.00626785
0.00662958
0.00698531
0.00733753
0.00768722
0.00803373
0.00837493
0.00870763
0.00902814
0.00933295
0.00961934
0.00988596
0.0101332
0.0103634
0.0105807
0.0107907
0.0109998
0.0112146
0.011441
0.0116835
0.0119442
0.0122226
0.0125151
0.0128155
0.0131148
0.0134022
0.0136663
0.0138956
0.0140801
0.0142118
0.0142863
0.0143028
0.0142645
0.0141789
0.0140566
0.0139115
0.0137588
0.0136144
0.0134935
0.0134089
0.0133705
0.0133839
0.0134501
0.0135648
0.0137193
0.0139002
0.0140909
0.0142723
0.0144242
0.0145269
0.0145623
0.0145154
0.0143749
0.0141345
0.0137928
0.0133537
0.0128261
0.012223
0.011561
0.0108588
0.0101368
0.00941512
0.00871352
0.00805009
0.00744106
0.00690068
0.0064414
0.00607446
0.00581056
0.00566083
0.00563761
0.00575525
0.00603053
0.00648274
0.00713328
0.00800465
0.00911907
0.0104965
0.0121523
0.0140951
0.0163241
0.0188273
0.0215796
0.0245426
0.0276644
0.0308805
0.0341166
0.0372909
0.0403188
0.0431164
0.045606
0.0477202
0.0494057
0.0506274
0.0513701
0.0516397
0.0514636
0.0508883
0.0499776
0.0488085
0.0474673
0.0460443
0.0446297
0.0433084
0.0421563
0.0412364
0.0405967
0.040268
0.0402636
0.0405791
0.0411939
0.0420728
0.0431686
0.044425
0.0457802
0.0471696
0.04853
0.0498017
0.0509319
0.0518762
0.0526002
0.0530804
0.0533042
0.0532699
0.0529851
0.0524661
0.0517363
0.0508241
0.0497614
0.0485823
0.0473207
0.0460095
0.0446789
0.0433558
0.0420625
0.0408163
0.0396293
0.0385083
0.0374548
0.0364658
0.0355344
0.0346506
0.0338027
0.0329783
0.0321656
0.0313543
0.0305371
0.02971
0.0288732
0.0280311
0.0271924
0.0263698
0.0255791
0.0248385
0.0241674
0.0235854
0.0231105
0.022758
0.0225393
0.0224607
0.0225227
0.0227192
0.0230374
0.0234584
0.0239574
0.024505
0.0250687
0.0256144
0.0261085
0.02652
0.0268223
0.0269954
0.0270271
0.0269146
0.0266651
0.0262962
0.0258353
0.025319
0.0247913
0.0243013
0.0239011
0.0236419
0.0235717
0.023731
0.02415
0.0248453
0.0258171
0.0270473
0.028498
0.0301109
0.0318082
0.0334934
0.0350544
0.0363665
0.0372971
0.0377102
0.037472
0.0364569
0.0345527
0.0316663
0.0277289
0.0226997
0.01657
0.00936503
0.00114565
-0.00799119
-0.0179131
-0.0284535
-0.0394137
-0.0505656
-0.0616546
-0.0724031
-0.0825145
-0.0916773
-0.0995701
-0.105867
-0.110243
-0.112385
-0.111994
-0.108801
-0.102574
-0.0931308
-0.0803497
-0.0641821
-0.0446633
-0.0219219
0.00381347
0.0322095
0.0628282
0.0951309
0.128487
0.162187
0.195463
0.227508
0.257507
0.28466
0.30822
0.327514
0.341981
0.351191
0.354867
0.3529
0.345356
0.332476
0.314664
0.292472
0.266577
0.237746
0.206806
0.174601
0.141961
0.109662
0.0783962
0.0487491
0.0211802
-0.00398609
-0.0265614
-0.0464875
-0.063824
-0.0787301
-0.0914438
-0.102259
-0.111501
-0.119509
-0.126609
-0.133105
-0.139262
-0.1453
-0.151384
-0.157629
-0.164097
-0.170804
-0.177723
-0.184796
-0.191938
-0.199051
-0.206029
-0.212769
-0.219179
-0.225183
-0.230727
-0.235784
-0.240353
-0.244462
-0.248159
-0.251515
-0.25461
-0.25753
-0.260358
-0.263162
-0.26599
-0.268859
-0.271753
-0.274619
-0.277365
-0.279864
-0.281959
-0.28347
-0.284206
-0.283976
-0.282599
-0.279919
-0.275813
-0.270203
-0.263058
-0.254401
-0.244307
-0.232901
-0.220351
-0.20686
-0.192656
-0.177984
-0.163089
-0.148211
-0.133571
-0.119368
-0.105769
-0.0929082
-0.080884
-0.0697596
-0.0595657
-0.0503033
-0.0419491
-0.0344595
-0.0277769
-0.0218337
-0.016558
-0.0118766
-0.00771896
-0.00401905
-0.000717282
0.00223882
0.00489437
0.00728735
0.00944927
0.011406
0.0131785
0.0147841
0.016237
0.0175492
0.0187308
0.0197907
0.0207371
0.0215772
0.0223178
0.0229655
0.0235262
0.0240061
0.0244108
0.0247464
0.0250186
0.0252335
0.0253973
0.0255161
0.0255962
0.0256439
0.025665
0.0256653
0.0256496
0.0256223
0.0255868
0.0255456
0.0255002
0.0254515
0.0253994
0.0253434
0.0252827
0.0252162
0.025143
0.0250622
0.0249733
0.0248754
0.0247678
0.0246495
0.0245189
0.0243738
0.0242109
0.0240265
0.0238156
0.0235733
0.0232941
0.022973
0.022606
0.0221906
0.0217263
0.0212152
0.0206624
0.0200762
0.0194678
0.0188514
0.0182435
0.0176622
0.0171263
0.0166544
0.0162636
0.0159682
0.0157793
0.0157029
0.0157402
0.0158864
0.0161314
0.0164593
0.0168497
0.0172785
0.0177189
0.0181431
0.0185239
0.0188359
0.0190575
0.0191718
0.0191678
0.0190413
0.0187949
0.018438
0.0179867
0.0174626
0.0168914
0.0163022
0.0157248
0.015189
0.0147222
0.0143479
0.0140846
0.013945
0.0139347
0.0140527
0.0142912
0.0146366
0.0150703
0.01557
0.0161113
0.016669
0.0172188
0.0177387
0.0182097
0.0186172
0.0189514
0.0192071
0.019384
0.0194862
0.0195213
0.0194997
0.0194338
0.019337
0.0192225
0.0191028
0.0189891
0.0188905
0.018814
0.0187645
0.0187445
0.0187546
0.0187937
0.0188595
0.0189487
0.0190573
0.0191812
0.0193158
0.019457
0.0196006
0.0197431
0.0198811
0.020012
0.0201338
0.0202455
0.0203472
0.0204401
0.0205266
0.0206107
0.0206974
0.020793
0.0209045
0.0210392
0.0212044
0.0214069
0.0216522
0.0219443
0.0222852
0.0226746
0.0231097
0.0235854
0.0240944
0.0246275
0.025174
0.0257221
0.0262601
0.026776
0.0272593
0.0277006
0.0280926
0.0284304
0.0287117
0.028937
0.0291093
0.0292342
0.0293191
0.0293733
0.0294064
0.0294286
0.0294495
0.0294774
0.0295192
0.0295793
0.02966
0.0297609
0.0298795
0.0300107
0.0301483
0.0302843
0.0304106
0.030519
0.030602
0.0306534
0.0306687
0.0306452
0.0305825
0.0304821
0.0303472
0.0301827
0.0299942
0.0297882
0.0295708
0.029348
0.0291246
0.0289044
0.0286899
0.028482
0.0282805
0.0280839
0.0278898
0.0276949
0.027496
0.0272894
0.0270715
0.0268392
0.0265893
0.0263191
0.0260258
0.0257069
0.0253596
0.024981
0.0245681
0.024118
0.0236275
0.0230942
0.0225166
0.021894
0.0212278
0.0205212
0.0197798
0.0190113
0.018226
0.0174356
0.0166534
0.0158929
0.0151674
0.0144886
0.0138658
0.0133049
0.0128079
0.0123725
0.0119918
0.0116551
0.0113481
0.0110541
0.0107552
0.0104338
0.0100736
0.0096615
0.00918811
0.00864871
0.00804358
0.00737787
0.00666105
0.00590609
0.00512822
0.00434363
0.00356816
0.00281602
0.00209888
0.00142515
0.000799777
0.000224317
-0.000302567
-0.000784383
-0.00122591
-0.00163224
-0.00200793
-0.0023563
-0.00267896
-0.00297572
-0.00324472
-0.00348287
-0.0036865
-0.00385213
-0.0039773
-0.00406133
-0.0041059
-0.00411543
-0.0040972
-0.00406118
-0.00401953
-0.00398593
-0.00397468
-0.0039997
-0.00407349
-0.00420621
-0.00440481
-0.00467249
-0.00500833
-0.00540724
-0.00586021
-0.00635485
-0.00687616
-0.00740746
-0.00793145
-0.00843133
-0.00889186
-0.0093003
-0.0096472
-0.00992689
-0.0101378
-0.0102825
-0.0103671
-0.0104011
-0.0103963
-0.0103659
-0.0103236
-0.0102822
-0.0102532
-0.0102454
-0.0102646
-0.0103133
-0.0103906
-0.0104926
-0.0106128
-0.0107431
-0.0108748
-0.0109997
-0.011111
-0.0112042
-0.0112782
-0.0113351
-0.0113807
-0.0114241
-0.0114767
-0.0115514
-0.0116611
-0.0118179
-0.0120311
-0.0123062
-0.0126442
-0.0130412
-0.0134876
-0.0139696
-0.0144693
-0.0149666
-0.0154403
-0.0158704
-0.0162392
-0.0165334
-0.0167449
-0.0168713
-0.0169166
-0.0168902
-0.0168066
-0.0166833
-0.0165401
-0.0163965
-0.0162707
-0.0161777
-0.0161282
-0.016128
-0.0161774
-0.0162716
-0.0164014
-0.0165542
-0.016715
-0.0168684
-0.0169996
-0.0170961
-0.0171485
-0.0171518
-0.0171049
-0.0170116
-0.0168793
-0.0167186
-0.0165417
-0.0163616
-0.0161905
-0.0160382
-0.0159116
-0.0158134
-0.015742
-0.0156915
-0.0156518
-0.0156097
-0.0155499
-0.0154562
-0.015313
-0.0151063
-0.0148252
-0.0144628
-0.0140167
-0.0134894
-0.0128883
-0.0122253
-0.011516
-0.0107789
-0.0100338
-0.00930129
-0.00860059
-0.00794888
-0.00735997
-0.00684346
-0.00640417
-0.00604182
-0.00575114
-0.00552234
-0.00534181
-0.0051932
-0.00505865
-0.00492017
-0.00476097
-0.00456677
-0.00432693
-0.00403519
-0.00369024
-0.00329574
-0.00286012
-0.00239588
-0.00191863
-0.00144595
-0.00099601
-0.00058621
-0.000231919
5.46583e-005
0.000265317
0.000396379
0.000448853
0.000428243
0.000344019
0.000208825
3.74911e-005
-0.000154055
-0.000349867
-0.00053497
-0.000696168
-0.00082262
-0.000906158
-0.000941329
-0.000925216
-0.000857066
-0.000737813
-0.000569563
-0.000355108
-9.75518e-005
0.000199938
0.000534218
0.000902104
0.0013002
0.00172464
0.00217086
0.00263335
0.00310563
0.00358026
0.00404912
0.0045038
0.0049362
0.00533917
0.00570722
0.00603714
0.00632851
0.00658399
0.00680929
0.00701284
0.00720517
0.00739793
0.00760271
0.00782971
0.00808641
0.00837633
0.00869805
0.00904461
0.00940339
0.00975654
0.0100819
0.0103546
0.0105486
0.0106396
0.0106065
0.0104341
0.0101146
0.00964956
0.00904984
0.00833609
0.00753774
0.00669142
0.00583874
0.00502359
0.00428914
0.0036749
0.0032139
0.00293037
0.00283809
0.0029395
0.0032257
0.00367734
0.00426634
0.00495837
0.0057158
0.00650106
0.00727999
0.00802506
0.0087181
0.00935244
0.00993408
0.010482
0.0110272
0.011611
0.0122823
0.0130936
0.0140975
0.0153418
0.0168652
0.0186937
0.0208367
0.0232854
0.0260109
0.0289648
0.0320805
0.0352757
0.0384567
0.041523
0.0443725
0.0469078
0.0490414
0.0507014
0.0518356
0.0524155
0.0524382
0.0519274
0.0509328
0.0495277
0.0478058
0.0458765
0.043859
0.0418762
0.0400479
0.0384845
0.0372805
0.0365094
0.0362194
0.0364309
0.0371351
0.0382948
0.0398469
0.041706
0.0437698
0.0459253
0.0480557
0.0500471
0.0517947
0.053209
0.0542202
0.0547812
0.0548692
0.0544863
0.0536576
0.0524287
0.0508622
0.0490328
0.0470228
0.0449172
0.0427987
0.040744
0.0388198
0.0370808
0.0355677
0.0343062
0.0333079
0.0325702
0.0320784
0.0318077
0.031725
0.0317917
0.0319657
0.0322043
0.0324657
0.032711
0.0329058
0.0330215
0.0330358
0.0329338
0.0327077
0.0323576
0.0318902
0.0313192
0.0306642
0.0299494
0.0292029
0.0284549
0.0277362
0.0270768
0.0265038
0.0260399
0.0257021
0.0255001
0.0254359
0.025503
0.0256867
0.0259647
0.0263083
0.0266841
0.0270562
0.0273886
0.0276479
0.0278061
0.0278425
0.0277465
0.0275188
0.0271723
0.0267322
0.0262353
0.0257281
0.0252643
0.0249016
0.0246976
0.0247052
0.0249681
0.0255162
0.0263613
0.0274936
0.0288785
0.0304561
0.0321398
0.0338189
0.0353606
0.036615
0.037421
0.0376129
0.0370285
0.0355172
0.0329484
0.0292192
0.0242613
0.0180471
0.0105934
0.00196454
-0.00772766
-0.0183246
-0.029624
-0.0413844
-0.0533307
-0.0651612
-0.0765545
-0.0871775
-0.096693
-0.104767
-0.111078
-0.115323
-0.117223
-0.116535
-0.113055
-0.106627
-0.0971495
-0.0845821
-0.0689526
-0.0503618
-0.0289882
-0.00509059
0.0209913
0.0488387
0.0779589
0.107793
0.137728
0.167109
0.195262
0.22151
0.245195
0.265704
0.282492
0.295101
0.303185
0.30652
0.305021
0.298747
0.287899
0.272814
0.253953
0.231878
0.207232
0.180705
0.153006
0.124831
0.0968342
0.0696004
0.0436248
0.0192977
-0.00310302
-0.0234139
-0.0415803
-0.0576459
-0.0717372
-0.0840465
-0.0948111
-0.104295
-0.112769
-0.120494
-0.127712
-0.134627
-0.141405
-0.148167
-0.154991
-0.161909
-0.168915
-0.175971
-0.183011
-0.189951
-0.196698
-0.203155
-0.209232
-0.214852
-0.219955
-0.224507
-0.228499
-0.231949
-0.234903
-0.237432
-0.239629
-0.241598
-0.243452
-0.245301
-0.247246
-0.249367
-0.251714
-0.254306
-0.257121
-0.260092
-0.263115
-0.266044
-0.268702
-0.270888
-0.272389
-0.272989
-0.272486
-0.2707
-0.267488
-0.262752
-0.256444
-0.248574
-0.239207
-0.228461
-0.216502
-0.203535
-0.189796
-0.175536
-0.161013
-0.146478
-0.132164
-0.118279
-0.104996
-0.0924516
-0.08074
-0.069916
-0.0599964
-0.0509649
-0.0427774
-0.0353694
-0.028663
-0.0225741
-0.0170191
-0.0119206
-0.00721186
-0.00283995
0.00123272
0.00502818
0.00855399
0.0118054
0.0147684
0.0174231
0.0197475
0.0217211
0.0233279
0.0245595
0.025417
0.025912
0.0260673
0.0259166
0.0255033
0.0248788
0.0241008
0.0232307
0.0223308
0.0214618
0.0206802
0.0200358
0.0195697
0.0193121
0.0192816
0.0194839
0.0199123
0.0205479
0.0213611
0.0223131
0.0233586
0.0244483
0.0255321
0.0265617
0.0274933
0.0282907
0.0289264
0.0293832
0.0296549
0.0297458
0.0296701
0.0294502
0.0291146
0.0286959
0.0282281
0.0277442
0.027274
0.0268423
0.0264673
0.02616
0.0259236
0.0257541
0.0256406
0.0255664
0.0255108
0.0254505
0.0253615
0.0252208
0.0250085
0.0247094
0.0243146
0.0238222
0.0232386
0.0225783
0.0218636
0.0211237
0.0203931
0.0197094
0.0191109
0.0186338
0.0183097
0.0181624
0.0182064
0.0184447
0.0188684
0.0194564
0.020177
0.0209887
0.0218438
0.0226911
0.0234794
0.024161
0.024695
0.0250504
0.0252073
0.0251588
0.0249108
0.0244811
0.0238976
0.0231959
0.0224165
0.0216014
0.0207907
0.0200205
0.0193197
0.0187092
0.0182008
0.0177976
0.0174945
0.0172802
0.017139
0.0170534
0.0170059
0.0169817
0.0169701
0.0169655
0.0169679
0.0169826
0.017019
0.0170896
0.0172076
0.0173852
0.0176315
0.0179506
0.0183408
0.0187938
0.0192946
0.0198222
0.0203516
0.0208551
0.0213049
0.0216757
0.0219467
0.0221043
0.0221436
0.0220689
0.0218949
0.0216454
0.0213524
0.0210537
0.0207906
0.0206046
0.0205341
0.0206115
0.0208601
0.0212917
0.0219051
0.0226855
0.0236049
0.0246232
0.0256904
0.02675
0.0277426
0.0286096
0.0292976
0.0297619
0.02997
0.0299038
0.0295611
0.028956
0.0281185
0.0270924
0.0259327
0.0247027
0.0234697
0.0223017
0.021263
0.020411
0.0197932
0.0194444
0.0193856
0.0196229
0.0201477
0.0209375
0.0219575
0.0231626
0.0245002
0.025913
0.0273419
0.0287294
0.0300218
0.0311721
0.0321421
0.0329033
0.033438
0.0337395
0.0338115
0.0336676
0.0333293
0.0328247
0.0321869
0.0314518
0.0306564
0.0298378
0.0290308
0.0282678
0.0275773
0.0269832
0.0265044
0.0261544
0.0259409
0.0258659
0.0259254
0.02611
0.0264052
0.0267918
0.0272466
0.0277439
0.028256
0.028755
0.0292135
0.0296068
0.0299134
0.0301164
0.0302047
0.0301729
0.0300223
0.0297602
0.0293996
0.0289585
0.0284586
0.0279238
0.0273796
0.0268505
0.0263599
0.025928
0.0255711
0.0253011
0.0251243
0.0250417
0.0250485
0.0251343
0.0252835
0.0254756
0.0256861
0.0258876
0.0260506
0.0261454
0.0261428
0.0260164
0.0257438
0.0253077
0.0246977
0.0239107
0.0229515
0.0218333
0.0205766
0.0192091
0.0177638
0.0162779
0.0147911
0.0133428
0.0119713
0.0107107
0.00959024
0.00863229
0.00785144
0.0072539
0.00683718
0.00659032
0.00649455
0.00652426
0.00664842
0.00683229
0.00703933
0.00723321
0.00737989
0.00744945
0.00741778
0.00726785
0.00699043
0.00658441
0.00605644
0.00542012
0.00469467
0.00390329
0.00307127
0.00222414
0.00138578
0.000576923
-0.000186101
-0.000892108
-0.00153539
-0.00211559
-0.00263716
-0.00310851
-0.00354096
-0.00394754
-0.0043418
-0.00473666
-0.00514347
-0.00557123
-0.00602606
-0.00651088
-0.00702546
-0.00756651
-0.00812814
-0.00870238
-0.00927979
-0.00985022
-0.0104034
-0.0109299
-0.0114211
-0.0118703
-0.0122724
-0.0126244
-0.0129251
-0.0131748
-0.0133752
-0.013529
-0.0136395
-0.0137104
-0.0137455
-0.0137489
-0.0137247
-0.0136774
-0.0136117
-0.0135333
-0.0134483
-0.0133638
-0.0132876
-0.0132278
-0.0131928
-0.0131904
-0.0132277
-0.0133103
-0.0134421
-0.0136244
-0.0138563
-0.0141342
-0.0144522
-0.0148022
-0.0151746
-0.0155588
-0.0159438
-0.016319
-0.0166745
-0.0170021
-0.0172948
-0.0175475
-0.0177567
-0.01792
-0.0180356
-0.0181018
-0.0181165
-0.0180767
-0.0179781
-0.0178153
-0.017582
-0.017272
-0.0168795
-0.0164009
-0.0158359
-0.015188
-0.0144666
-0.0136863
-0.0128681
-0.0120379
-0.0112262
-0.0104657
-0.00978993
-0.00923007
-0.00881305
-0.00855899
-0.00847937
-0.00857572
-0.0088391
-0.00925033
-0.00978107
-0.0103957
-0.0110535
-0.0117117
-0.0123281
-0.0128638
-0.0132857
-0.0135684
-0.0136952
-0.0136588
-0.0134612
-0.0131125
-0.0126301
-0.0120368
-0.011359
-0.0106246
-0.00986176
-0.0090968
-0.00835331
-0.00765117
-0.00700603
-0.00642912
-0.00592742
-0.00550399
-0.00515854
-0.00488806
-0.00468758
-0.0045508
-0.00447076
-0.00444036
-0.00445281
-0.00450189
-0.00458218
-0.00468906
-0.0048187
-0.00496787
-0.00513368
-0.0053133
-0.00550352
-0.0057004
-0.00589887
-0.00609241
-0.00627283
-0.00643023
-0.00655315
-0.00662899
-0.00664461
-0.00658719
-0.00644524
-0.00620971
-0.00587503
-0.00544005
-0.00490869
-0.00429024
-0.00359919
-0.00285466
-0.00207932
-0.00129801
-0.000536053
0.000182534
0.000836813
0.0014105
0.00189324
0.00228141
0.00257848
0.00279476
0.00294668
0.00305561
0.00314622
0.00324473
0.00337694
0.0035664
0.00383269
0.00419009
0.00464654
0.00520314
0.00585395
0.00658635
0.00738157
0.00821565
0.0090605
0.00988514
0.010657
0.0113434
0.0119125
0.0123354
0.0125865
0.0126455
0.0124979
0.0121365
0.0115614
0.0107805
0.00980976
0.00867228
0.00739777
0.00602123
0.00458154
0.00311981
0.00167776
0.000296056
-0.00098702
-0.00213674
-0.00312271
-0.00391928
-0.00450569
-0.00486584
-0.00498793
-0.00486391
-0.00448896
-0.0038609
-0.0029798
-0.00184766
-0.000468296
0.00115262
0.00300733
0.00508559
0.00737416
0.00985617
0.0125105
0.0153113
0.0182274
0.0212221
0.0242534
0.0272746
0.0302349
0.0330809
0.0357587
0.0382155
0.0404025
0.0422768
0.0438045
0.0449625
0.0457406
0.0461429
0.0461885
0.0459117
0.0453612
0.0445986
0.0436959
0.0427325
0.0417917
0.0409559
0.0403031
0.0399017
0.0398069
0.040057
0.0406707
0.0416455
0.0429571
0.0445603
0.046391
0.0483695
0.0504048
0.0523993
0.0542547
0.0558771
0.0571818
0.0580987
0.0585747
0.0585766
0.0580923
0.0571299
0.0557168
0.0538966
0.0517265
0.0492726
0.0466067
0.0438019
0.0409297
0.0380566
0.0352426
0.0325394
0.0299905
0.0276306
0.0254865
0.0235782
0.0219195
0.0205192
0.0193817
0.0185078
0.0178946
0.0175359
0.0174215
0.0175372
0.0178643
0.0183799
0.0190563
0.019862
0.0207624
0.0217206
0.0226991
0.023661
0.0245718
0.0254009
0.026123
0.0267186
0.0271752
0.0274875
0.0276565
0.0276899
0.0276004
0.0274049
0.027123
0.026776
0.0263849
0.0259699
0.025549
0.0251374
0.0247468
0.0243859
0.0240595
0.02377
0.0235169
0.0232983
0.0231118
0.0229549
0.0228268
0.0227287
0.0226646
0.0226419
0.0226714
0.0227665
0.0229427
0.0232156
0.0235991
0.024103
0.02473
0.0254728
0.0263115
0.0272111
0.0281199
0.0289682
0.029669
0.0301193
0.0302025
0.0297931
0.0287612
0.0269793
0.0243281
0.0207046
0.0160283
0.0102479
0.00334676
-0.00465204
-0.013683
-0.0236361
-0.0343565
-0.0456461
-0.0572656
-0.0689388
-0.0803577
-0.0911888
-0.10108
-0.109669
-0.116593
-0.121496
-0.12404
-0.123918
-0.120862
-0.114652
-0.105133
-0.0922177
-0.0758998
-0.056259
-0.0334672
-0.00779055
0.0204103
0.0506835
0.0824932
0.115229
0.148222
0.180757
0.212098
0.241506
0.268267
0.291712
0.311241
0.32635
0.336646
0.341867
0.341892
0.336748
0.32661
0.311796
0.292755
0.270045
0.244312
0.216265
0.186637
0.156162
0.125542
0.0954183
0.0663522
0.0388044
0.0131268
-0.0104424
-0.0317765
-0.0508517
-0.0677348
-0.0825673
-0.0955473
-0.106911
-0.116913
-0.125813
-0.133859
-0.141277
-0.148259
-0.154963
-0.161509
-0.167975
-0.174404
-0.180803
-0.187154
-0.193415
-0.199529
-0.205429
-0.211047
-0.21632
-0.221193
-0.22563
-0.229611
-0.23314
-0.236244
-0.238972
-0.241396
-0.243603
-0.245693
-0.247768
-0.249929
-0.252264
-0.254839
-0.257693
-0.26083
-0.264212
-0.267759
-0.271352
-0.274828
-0.277997
-0.280641
-0.282533
-0.283443
-0.283157
-0.281487
-0.278283
-0.273445
-0.266926
-0.25874
-0.248961
-0.237718
-0.225188
-0.211592
-0.197176
-0.182205
-0.166948
-0.151664
-0.136594
-0.121952
-0.107916
-0.0946283
-0.0821883
-0.0706586
-0.0600649
-0.0504013
-0.0416357
-0.0337158
-0.0265757
-0.0201416
-0.0143378
-0.00909081
-0.00433376
-8.64947e-006
0.0039318
0.00752354
0.0107914
0.0137504
0.016407
0.018762
0.0208124
0.0225545
0.0239867
0.0251114
0.0259372
0.0264807
0.0267665
0.0268278
0.0267052
0.0264457
0.0260998
0.02572
0.025357
0.0250574
0.024861
0.0247982
0.0248889
0.025141
0.0255506
0.0261026
0.026772
0.0275259
0.0283264
0.0291325
0.0299038
0.0306023
0.0311949
0.0316551
0.0319639
0.0321102
0.0320908
0.0319097
0.0315769
0.0311072
0.0305191
0.0298328
0.0290698
0.0282519
0.0274002
0.0265356
0.0256783
0.0248483
0.0240656
0.0233501
0.0227218
0.0222003
0.0218043
0.0215501
0.0214506
0.0215135
0.0217399
0.0221226
0.0226453
0.0232823
0.0239982
0.0247499
0.0254875
0.0261582
0.0267087
0.0270894
0.0272581
0.0271836
0.0268485
0.0262512
0.025407
0.0243477
0.02312
0.0217827
0.0204031
0.0190522
0.0178004
0.0167125
0.0158431
0.015234
0.0149107
0.0148819
0.0151392
0.0156585
0.0164023
0.0173231
0.0183665
0.019476
0.0205958
0.0216746
0.0226685
0.0235425
0.024272
0.0248433
0.0252528
0.0255069
0.0256198
0.0256125
0.025511
0.0253436
0.02514
0.0249287
0.0247358
0.0245833
0.0244882
0.0244614
0.0245075
0.0246247
0.0248052
0.025036
0.0253003
0.0255787
0.0258511
0.0260983
0.0263036
0.0264545
0.0265432
0.0265679
0.0265324
0.0264459
0.026322
0.0261774
0.0260304
0.0258994
0.0258008
0.025748
0.0257501
0.0258113
0.0259304
0.0261015
0.0263143
0.026555
0.0268082
0.0270574
0.027287
0.0274834
0.0276359
0.0277376
0.0277859
0.0277829
0.0277349
0.0276523
0.0275485
0.0274397
0.0273429
0.027275
0.0272519
0.0272863
0.0273872
0.0275587
0.0277993
0.0281017
0.0284529
0.0288352
0.0292271
0.0296051
0.0299459
0.0302278
0.030434
0.0305532
0.0305821
0.0305258
0.030398
0.0302204
0.0300215
0.0298338
0.0296919
0.0296291
0.0296743
0.0298494
0.0301671
0.030629
0.0312251
0.0319341
0.0327248
0.0335579
0.0343895
0.0351735
0.035866
0.0364279
0.0368282
0.0370458
0.0370715
0.036908
0.0365696
0.0360807
0.0354742
0.0347883
0.034064
0.033342
0.0326599
0.0320496
0.0315357
0.0311338
0.0308501
0.0306819
0.0306176
0.0306389
0.0307216
0.0308386
0.0309612
0.0310612
0.031113
0.0310948
0.0309894
0.0307851
0.0304756
0.0300597
0.0295411
0.0289273
0.0282289
0.0274591
0.0266327
0.0257654
0.0248737
0.0239744
0.0230842
0.0222199
0.0213973
0.0206317
0.0199366
0.0193235
0.0188011
0.0183742
0.0180435
0.0178044
0.0176471
0.0175567
0.0175131
0.0174924
0.0174677
0.0174106
0.0172931
0.0170892
0.0167767
0.0163385
0.0157643
0.0150505
0.0142016
0.0132292
0.0121514
0.010992
0.00977861
0.00854102
0.00730921
0.00611143
0.00497243
0.00391188
0.00294329
0.0020733
0.00130154
0.00062098
1.88341e-005
-0.000522183
-0.00102222
-0.00150248
-0.00198339
-0.00248285
-0.00301481
-0.00358822
-0.00420643
-0.0048672
-0.00556318
-0.00628288
-0.00701204
-0.00773515
-0.00843719
-0.00910509
-0.00972912
-0.0103038
-0.0108282
-0.0113063
-0.0117459
-0.0121582
-0.012556
-0.0129524
-0.0133591
-0.0137851
-0.0142354
-0.0147105
-0.0152054
-0.0157106
-0.0162122
-0.0166936
-0.0171364
-0.0175225
-0.0178357
-0.0180631
-0.0181969
-0.0182348
-0.0181808
-0.0180449
-0.0178426
-0.0175939
-0.017322
-0.0170512
-0.0168058
-0.0166077
-0.0164753
-0.0164222
-0.016456
-0.0165781
-0.0167833
-0.0170607
-0.0173937
-0.0177616
-0.0181406
-0.0185051
-0.0188295
-0.019089
-0.0192615
-0.0193286
-0.0192764
-0.0190963
-0.0187856
-0.0183476
-0.0177918
-0.0171329
-0.0163912
-0.0155909
-0.0147595
-0.0139262
-0.013121
-0.0123729
-0.0117084
-0.0111503
-0.0107166
-0.010419
-0.0102627
-0.0102457
-0.0103592
-0.0105876
-0.0109097
-0.0112997
-0.0117284
-0.0121653
-0.0125799
-0.0129431
-0.0132295
-0.0134176
-0.0134915
-0.0134414
-0.0132635
-0.01296
-0.0125387
-0.0120126
-0.0113983
-0.0107154
-0.00998535
-0.00923035
-0.00847218
-0.00773145
-0.00702675
-0.00637406
-0.00578631
-0.00527307
-0.00484045
-0.00449101
-0.00422396
-0.00403532
-0.00391827
-0.00386362
-0.00386028
-0.00389592
-0.0039576
-0.0040325
-0.00410862
-0.00417544
-0.00422445
-0.00424964
-0.00424774
-0.00421823
-0.00416327
-0.00408725
-0.00399629
-0.0038975
-0.00379825
-0.00370531
-0.00362414
-0.00355826
-0.00350885
-0.00347452
-0.0034514
-0.00343349
-0.00341321
-0.00338212
-0.00333184
-0.00325489
-0.00314552
-0.00300043
-0.00281916
-0.00260433
-0.00236148
-0.0020987
-0.0018259
-0.00155398
-0.00129381
-0.00105518
-0.000845789
-0.000670475
-0.000530543
-0.000423463
-0.00034284
-0.00027873
-0.000218241
-0.000146405
-4.72576e-005
9.49709e-005
0.000294606
0.000563328
0.000909102
0.0013353
0.00184008
0.0024161
0.00305058
0.00372564
0.00441905
0.00510528
0.00575679
0.00634548
0.00684433
0.00722906
0.00747964
0.0075818
0.00752809
0.00731879
0.00696226
0.00647493
0.00588071
0.00520997
0.00449811
0.00378367
0.00310626
0.00250428
0.00201267
0.00166077
0.00147052
0.00145498
0.00161736
0.00195066
0.00243783
0.00305258
0.00376061
0.00452141
0.00529033
0.00602093
0.00666737
0.00718681
0.00754156
0.00770109
0.00764351
0.00735669
0.00683892
0.00609899
0.0051559
0.00403807
0.00278218
0.00143172
3.53771e-005
-0.00135484
-0.00268536
-0.00390289
-0.0049561
-0.00579719
-0.00638316
-0.00667702
-0.00664857
-0.00627505
-0.00554156
-0.00444122
-0.00297522
-0.00115266
0.00100962
0.00348735
0.00624919
0.00925712
0.0124669
0.0158286
0.0192873
0.022784
0.0262562
0.0296398
0.0328702
0.0358841
0.0386218
0.0410287
0.0430582
0.0446732
0.0458482
0.0465712
0.0468445
0.0466851
0.0461255
0.0452121
0.0440048
0.0425746
0.0410013
0.0393706
0.0377704
0.0362875
0.0350036
0.0339911
0.03331
0.0330044
0.0330997
0.0336013
0.0344932
0.0357388
0.037282
0.0390498
0.0409563
0.0429067
0.0448024
0.0465466
0.0480496
0.0492334
0.0500362
0.0504153
0.0503497
0.04984
0.0489086
0.0475971
0.0459633
0.0440777
0.0420182
0.0398657
0.0376992
0.035591
0.0336032
0.0317846
0.0301691
0.0287742
0.0276023
0.0266412
0.0258672
0.0252474
0.0247432
0.0243141
0.023921
0.0235292
0.0231109
0.0226471
0.0221288
0.0215569
0.0209424
0.0203043
0.0196687
0.0190665
0.0185306
0.018094
0.0177872
0.0176362
0.0176604
0.0178712
0.0182714
0.0188543
0.0196041
0.0204965
0.0214994
0.0225748
0.0236803
0.0247713
0.0258035
0.0267343
0.0275261
0.0281474
0.0285752
0.0287961
0.0288076
0.028618
0.028247
0.027725
0.0270916
0.0263943
0.0256863
0.0250242
0.0244649
0.0240626
0.0238662
0.0239152
0.0242376
0.0248464
0.0257377
0.0268883
0.0282548
0.0297728
0.0313577
0.0329054
0.0342953
0.0353934
0.0360564
0.0361371
0.0354904
0.0339793
0.0314814
0.0278958
0.0231486
0.0171989
0.010043
0.00171824
-0.00769522
-0.0180731
-0.0292476
-0.0410091
-0.053109
-0.0652641
-0.0771609
-0.0884621
-0.0988125
-0.107847
-0.115198
-0.120503
-0.123418
-0.12362
-0.120826
-0.114796
-0.105349
-0.0923722
-0.0758315
-0.0557801
-0.0323661
-0.00583872
0.0234503
0.0550468
0.0883999
0.12287
0.157743
0.192248
0.225577
0.256913
0.285455
0.310447
0.331208
0.34716
0.357852
0.362978
0.362399
0.356146
0.344422
0.327595
0.306186
0.280842
0.252309
0.221401
0.188959
0.155818
0.122769
0.0905301
0.0597163
0.0308248
0.00422116
-0.0198629
-0.0413259
-0.0601848
-0.0765593
-0.0906517
-0.102724
-0.113078
-0.122028
-0.129888
-0.136952
-0.143481
-0.149694
-0.155766
-0.161823
-0.167943
-0.174162
-0.18048
-0.186866
-0.193266
-0.199613
-0.205831
-0.211848
-0.217597
-0.223023
-0.228091
-0.232781
-0.237098
-0.241064
-0.244719
-0.248119
-0.251326
-0.254408
-0.257428
-0.260436
-0.263468
-0.266532
-0.269611
-0.272655
-0.275581
-0.278278
-0.280605
-0.282403
-0.283499
-0.283718
-0.282892
-0.28087
-0.27753
-0.272786
-0.266593
-0.258952
-0.249915
-0.239574
-0.228069
-0.215571
-0.202278
-0.188408
-0.174185
-0.15983
-0.145553
-0.131549
-0.117983
-0.104995
-0.0926933
-0.0811557
-0.0704298
-0.0605362
-0.0514722
-0.0432158
-0.0357301
-0.0289674
-0.0228737
-0.0173917
-0.0124642
-0.00803611
-0.00405614
-0.000478033
0.00273893
0.00562976
0.00822401
0.0105462
0.0126167
0.0144522
0.0160673
0.0174746
0.0186867
0.0197162
0.0205767
0.0212838
0.0218546
0.0223086
0.0226667
0.0229514
0.0231856
0.0233918
0.0235914
0.0238029
0.0240419
0.0243193
0.0246414
0.0250092
0.0254183
0.0258593
0.0263189
0.0267799
0.0272232
0.0276288
0.0279771
0.0282505
0.0284347
0.0285195
0.0284998
0.028376
0.0281542
0.0278457
0.0274662
0.0270349
0.0265733
0.0261034
0.0256462
0.0252203
0.0248407
0.0245177
0.0242561
0.0240557
0.0239109
0.0238119
0.0237461
0.0236988
0.0236556
0.0236033
0.0235318
0.0234346
0.0233101
0.0231611
0.0229952
0.0228234
0.0226594
0.0225181
0.0224137
0.0223586
0.0223613
0.0224261
0.0225516
0.0227303
0.0229495
0.023191
0.0234329
0.0236504
0.023818
0.0239111
0.0239078
0.0237907
0.0235479
0.0231744
0.0226727
0.0220523
0.0213298
0.0205277
0.0196732
0.0187968
0.0179299
0.0171037
0.0163468
0.0156839
0.0151341
0.0147103
0.0144184
0.0142573
0.0142189
0.0142894
0.01445
0.0146789
0.0149522
0.0152463
0.0155391
0.0158116
0.016049
0.0162414
0.0163844
0.0164787
0.01653
0.0165478
0.0165445
0.0165344
0.016532
0.0165511
0.0166033
0.0166977
0.0168397
0.017031
0.0172695
0.0175493
0.0178618
0.0181956
0.018538
0.0188757
0.0191957
0.0194865
0.0197386
0.0199455
0.0201039
0.020214
0.0202796
0.0203078
0.0203086
0.0202939
0.0202774
0.0202732
0.0202952
0.0203563
0.0204678
0.0206388
0.0208759
0.021183
0.0215613
0.0220095
0.0225239
0.0230988
0.0237269
0.0243996
0.0251073
0.0258399
0.0265866
0.0273369
0.02808
0.0288054
0.0295029
0.0301629
0.0307765
0.0313356
0.0318337
0.0322653
0.0326273
0.0329182
0.0331389
0.0332926
0.0333847
0.0334227
0.0334156
0.0333737
0.0333077
0.0332285
0.033146
0.0330688
0.0330035
0.0329545
0.0329237
0.0329102
0.0329108
0.0329204
0.0329321
0.0329386
0.0329324
0.0329068
0.0328568
0.0327796
0.0326751
0.032546
0.0323983
0.0322404
0.032083
0.0319381
0.031818
0.0317348
0.0316986
0.031717
0.031794
0.0319294
0.032119
0.0323537
0.0326206
0.0329035
0.0331836
0.0334411
0.0336559
0.0338095
0.0338858
0.0338722
0.0337604
0.033547
0.0332336
0.0328266
0.0323367
0.0317781
0.0311678
0.0305243
0.0298664
0.0292123
0.0285785
0.0279788
0.0274241
0.0269215
0.0264741
0.0260815
0.0257394
0.0254401
0.0251732
0.0249257
0.0246828
0.0244283
0.0241458
0.0238187
0.0234314
0.0229699
0.0224224
0.0217799
0.021037
0.0201919
0.0192471
0.0182091
0.0170885
0.0158998
0.0146605
0.0133911
0.0121137
0.0108517
0.00962833
0.00846628
0.00738627
0.00640641
0.00554126
0.00480116
0.00419163
0.00371303
0.00336041
0.00312357
0.00298743
0.00293266
0.00293652
0.00297397
0.0030189
0.00304547
0.00302954
0.00294992
0.00278963
0.00253679
0.00218536
0.00173539
0.00119301
0.000569972
-0.000117097
-0.000847831
-0.00159942
-0.00234807
-0.00307049
-0.00374529
-0.00435426
-0.0048833
-0.00532317
-0.00566974
-0.00592402
-0.00609178
-0.00618288
-0.00621043
-0.00618972
-0.00613715
-0.00606912
-0.00600106
-0.00594662
-0.005917
-0.00592064
-0.00596307
-0.00604705
-0.00617293
-0.00633916
-0.00654292
-0.0067808
-0.00704944
-0.00734608
-0.00766895
-0.00801748
-0.00839223
-0.00879471
-0.00922687
-0.00969061
-0.0101871
-0.0107161
-0.0112756
-0.0118613
-0.0124663
-0.0130815
-0.0136957
-0.0142964
-0.0148701
-0.0154036
-0.0158849
-0.0163036
-0.0166522
-0.0169266
-0.0171261
-0.0172539
-0.0173168
-0.0173248
-0.0172904
-0.0172278
-0.017152
-0.0170778
-0.017019
-0.0169877
-0.0169929
-0.0170412
-0.0171354
-0.0172754
-0.0174577
-0.0176763
-0.0179228
-0.0181874
-0.0184595
-0.018728
-0.0189828
-0.0192144
-0.019415
-0.0195783
-0.0197
-0.0197773
-0.0198093
-0.0197963
-0.0197398
-0.0196424
-0.0195073
-0.0193383
-0.0191398
-0.0189167
-0.0186745
-0.0184193
-0.0181576
-0.0178964
-0.0176429
-0.0174043
-0.0171872
-0.0169972
-0.0168386
-0.0167134
-0.0166216
-0.0165602
-0.0165234
-0.016503
-0.0164879
-0.0164655
-0.0164219
-0.0163431
-0.0162158
-0.0160284
-0.0157724
-0.0154425
-0.0150381
-0.0145626
-0.0140246
-0.0134365
-0.0128145
-0.0121775
-0.0115456
-0.0109391
-0.0103768
-0.00987471
-0.00944501
-0.0090948
-0.00882571
-0.00863365
-0.00850904
-0.00843744
-0.00840054
-0.00837741
-0.00834593
-0.00828434
-0.00817267
-0.00799412
-0.0077361
-0.00739108
-0.006957
-0.00643738
-0.00584098
-0.00518128
-0.00447554
-0.00374376
-0.00300752
-0.00228873
-0.00160847
-0.000985906
-0.000437378
2.43492e-005
0.000390589
0.000657032
0.000823802
0.000895304
0.000879862
0.000789182
0.000637689
0.000441748
0.00021885
-1.32087e-005
-0.000237108
-0.000436703
-0.000597606
-0.000707648
-0.000757196
-0.000739339
-0.000649955
-0.000487685
-0.000253829
4.78053e-005
0.000411078
0.000827713
0.00128751
0.00177857
0.00228758
0.00280009
0.00330099
0.00377494
0.00420705
0.0045835
0.00489237
0.00512437
0.00527366
0.00533842
0.00532133
0.00522981
0.00507584
0.00487557
0.00464841
0.00441596
0.00420052
0.00402348
0.00390368
0.00385577
0.00388881
0.00400525
0.0042003
0.00446185
0.004771
0.00510315
0.00542952
0.00571925
0.00594156
0.0060682
0.00607566
0.00594713
0.00567405
0.00525698
0.00470581
0.00403927
0.00328368
0.00247119
0.00163748
0.000819227
5.15676e-005
-0.000634347
-0.00121334
-0.00166768
-0.00198779
-0.00217229
-0.00222717
-0.00216436
-0.0019997
-0.00175051
-0.00143306
-0.00106011
-0.000638699
-0.000168545
0.00035896
0.000960892
0.00166212
0.00249378
0.003491
0.00469006
0.00612511
0.00782476
0.00980887
0.0120856
0.0146493
0.017479
0.0205383
0.0237757
0.0271269
0.030517
0.0338647
0.0370859
0.0400981
0.0428254
0.0452021
0.0471763
0.0487126
0.0497937
0.050421
0.0506143
0.0504099
0.0498584
0.0490218
0.0479701
0.0467773
0.0455186
0.0442666
0.0430886
0.0420444
0.0411841
0.0405473
0.0401616
0.0400424
0.0401933
0.0406058
0.0412604
0.0421275
0.0431686
0.0443382
0.045585
0.0468544
0.0480904
0.0492374
0.0502427
0.0510581
0.051642
0.051961
0.0519906
0.0517172
0.0511376
0.0502599
0.0491027
0.0476946
0.0460728
0.0442813
0.0423692
0.0403881
0.0383898
0.0364239
0.0345353
0.0327624
0.0311352
0.0296745
0.0283914
0.027287
0.0263537
0.0255761
0.0249331
0.0243994
0.0239479
0.0235519
0.0231868
0.022832
0.0224718
0.0220964
0.0217018
0.0212903
0.0208689
0.0204492
0.0200454
0.0196735
0.0193494
0.0190876
0.0188998
0.0187943
0.0187745
0.0188392
0.0189819
0.0191918
0.0194542
0.0197515
0.0200645
0.0203741
0.0206621
0.0209134
0.0211166
0.0212654
0.0213593
0.0214037
0.0214099
0.0213952
0.0213816
0.0213951
0.0214643
0.0216186
0.0218866
0.0222942
0.0228622
0.0236046
0.0245258
0.0256195
0.0268662
0.0282325
0.0296696
0.0311137
0.0324862
0.0336949
0.0346363
0.0351989
0.0352662
0.0347218
0.0334535
0.0313589
0.0283502
0.024359
0.0193411
0.0132798
0.00618952
-0.00188246
-0.0108542
-0.0206091
-0.0309957
-0.0418294
-0.0528942
-0.0639449
-0.0747104
-0.0848973
-0.0941946
-0.102278
-0.108817
-0.113481
-0.115947
-0.115909
-0.113089
-0.107247
-0.0981943
-0.0858022
-0.0700171
-0.0508697
-0.0284844
-0.00308569
0.0249976
0.0553326
0.0873869
0.120537
0.154082
0.187263
0.219283
0.249333
0.276624
0.30041
0.320025
0.334903
0.34461
0.348859
0.34753
0.34067
0.328503
0.311412
0.289933
0.264723
0.236537
0.20619
0.174522
0.142363
0.110491
0.0796091
0.0503114
0.0230699
-0.00177912
-0.0240374
-0.0436396
-0.060642
-0.0752051
-0.0875727
-0.0980482
-0.106971
-0.114692
-0.121557
-0.12788
-0.133939
-0.13996
-0.14611
-0.1525
-0.159183
-0.166157
-0.173379
-0.180765
-0.188208
-0.195587
-0.202773
-0.209647
-0.216105
-0.222066
-0.227477
-0.23232
-0.236608
-0.240388
-0.24373
-0.24673
-0.249492
-0.252124
-0.254729
-0.257387
-0.260155
-0.263055
-0.266067
-0.269129
-0.27214
-0.274956
-0.277405
-0.279293
-0.280411
-0.280558
-0.279541
-0.277198
-0.273403
-0.268076
-0.261189
-0.252768
-0.242892
-0.231689
-0.219332
-0.206025
-0.191998
-0.17749
-0.162745
-0.147995
-0.133458
-0.119323
-0.105753
-0.0928772
-0.0807906
-0.0695576
-0.0592128
-0.0497649
-0.041201
-0.0334911
-0.0265928
-0.0204548
-0.0150209
-0.0102321
-0.00602911
-0.00235359
0.000851149
0.00363957
0.00606369
0.00817299
0.0100142
0.0116313
0.0130647
0.0143513
0.0155237
0.0166097
0.0176318
0.018607
0.0195471
0.020458
0.0213412
0.0221939
0.02301
0.0237813
0.0244985
0.0251525
0.0257351
0.0262401
0.0266636
0.0270048
0.0272655
0.0274504
0.0275665
0.0276224
0.0276281
0.0275935
0.0275286
0.0274422
0.0273418
0.0272332
0.0271203
0.0270053
0.0268888
0.0267703
0.0266485
0.026522
0.0263895
0.0262506
0.0261056
0.0259561
0.0258046
0.0256544
0.0255095
0.0253736
0.0252504
0.0251424
0.0250508
0.024975
0.0249127
0.0248597
0.0248099
0.0247559
0.0246893
0.0246015
0.0244839
0.0243292
0.0241314
0.0238864
0.0235924
0.0232502
0.0228627
0.0224348
0.0219733
0.021486
0.0209813
0.0204676
0.0199525
0.0194425
0.0189425
0.0184555
0.0179824
0.0175223
0.0170725
0.016629
0.0161868
0.0157408
0.015286
0.0148186
0.0143359
0.0138374
0.0133246
0.0128014
0.012274
0.0117506
0.0112412
0.0107571
0.0103105
0.00991347
0.00957788
0.00931436
0.00913187
0.00903709
0.00903397
0.00912332
0.00930256
0.00956556
0.00990275
0.0103013
0.0107457
0.011218
0.0116995
0.0121706
0.0126129
0.0130098
0.0133475
0.0136163
0.013811
0.0139315
0.0139827
0.0139745
0.0139213
0.0138408
0.0137533
0.0136799
0.013642
0.0136592
0.0137486
0.0139233
0.0141924
0.0145595
0.0150234
0.0155775
0.0162108
0.0169079
0.0176504
0.0184178
0.0191882
0.0199402
0.0206532
0.0213092
0.0218933
0.0223945
0.0228065
0.0231277
0.0233616
0.0235162
0.0236041
0.0236412
0.0236462
0.0236392
0.0236405
0.0236691
0.0237419
0.0238719
0.0240675
0.0243322
0.0246635
0.0250535
0.0254894
0.0259542
0.0264276
0.0268882
0.0273142
0.0276856
0.0279856
0.0282015
0.0283261
0.028358
0.0283021
0.0281687
0.0279732
0.027735
0.0274762
0.0272199
0.0269891
0.0268047
0.0266849
0.0266439
0.0266911
0.0268308
0.0270622
0.0273796
0.0277729
0.0282281
0.0287287
0.029256
0.0297905
0.0303128
0.0308046
0.0312492
0.0316328
0.0319444
0.0321765
0.0323253
0.0323905
0.0323753
0.0322857
0.0321304
0.0319197
0.0316654
0.0313795
0.0310743
0.0307614
0.0304514
0.0301538
0.029877
0.0296282
0.0294135
0.0292378
0.0291055
0.0290198
0.0289828
0.0289951
0.0290556
0.0291606
0.0293037
0.0294751
0.0296614
0.0298456
0.0300074
0.0301239
0.0301706
0.0301225
0.029956
0.0296502
0.0291886
0.0285606
0.0277626
0.0267988
0.025681
0.0244291
0.0230697
0.021635
0.0201614
0.0186876
0.0172525
0.0158931
0.0146432
0.0135314
0.0125801
0.0118044
0.0112121
0.0108033
0.0105711
0.0105022
0.0105778
0.0107752
0.0110682
0.0114293
0.0118303
0.0122434
0.0126423
0.013003
0.0133039
0.0135271
0.0136579
0.0136856
0.013603
0.0134074
0.0130997
0.0126846
0.0121705
0.011569
0.0108949
0.0101647
0.00939672
0.00860996
0.00782296
0.007053
0.00631504
0.0056208
0.00497801
0.00438989
0.00385495
0.00336706
0.00291597
0.00248817
0.00206799
0.00163907
0.00118584
0.000695106
0.000157416
-0.000431789
-0.00107146
-0.00175468
-0.00246899
-0.00319722
-0.00391876
-0.00461125
-0.00525246
-0.00582221
-0.00630412
-0.00668711
-0.00696637
-0.00714384
-0.0072281
-0.00723362
-0.00717962
-0.00708843
-0.00698367
-0.00688834
-0.00682295
-0.006804
-0.00684265
-0.00694405
-0.00710704
-0.00732446
-0.007584
-0.00786941
-0.00816211
-0.00844297
-0.00869413
-0.00890066
-0.00905201
-0.0091429
-0.00917389
-0.00915123
-0.00908633
-0.00899467
-0.00889441
-0.00880481
-0.00874458
-0.00873036
-0.00877537
-0.00888854
-0.00907387
-0.00933038
-0.0096523
-0.0100298
-0.0104498
-0.0108972
-0.0113562
-0.0118111
-0.0122483
-0.0126566
-0.0130283
-0.0133598
-0.0136516
-0.0139084
-0.0141381
-0.0143515
-0.0145605
-0.0147775
-0.0150131
-0.0152758
-0.0155698
-0.0158947
-0.016245
-0.0166097
-0.0169731
-0.0173155
-0.0176146
-0.017847
-0.0179898
-0.0180227
-0.0179294
-0.017699
-0.0173271
-0.0168162
-0.0161761
-0.0154235
-0.0145811
-0.0136767
-0.0127413
-0.0118079
-0.0109096
-0.0100774
-0.00933894
-0.00871683
-0.00822725
-0.00787924
-0.00767417
-0.00760579
-0.0076608
-0.00781982
-0.00805886
-0.00835103
-0.00866853
-0.00898453
-0.00927509
-0.00952064
-0.00970707
-0.00982639
-0.00987668
-0.00986166
-0.00978967
-0.00967235
-0.00952316
-0.0093558
-0.00918281
-0.00901451
-0.00885819
-0.00871794
-0.00859472
-0.00848696
-0.00839138
-0.00830396
-0.00822089
-0.00813938
-0.00805825
-0.00797813
-0.00790137
-0.00783155
-0.00777282
-0.00772898
-0.00770257
-0.00769403
-0.00770103
-0.00771804
-0.0077363
-0.00774408
-0.00772726
-0.0076703
-0.00755733
-0.00737349
-0.00710619
-0.00674641
-0.00628978
-0.00573735
-0.00509607
-0.00437878
-0.00360374
-0.0027938
-0.00197501
-0.00117501
-0.000421105
0.000261618
0.00085219
0.00133532
0.00170254
0.00195284
0.00209261
0.00213502
0.00209877
0.00200636
0.00188209
0.00174995
0.00163158
0.00154463
0.00150152
0.00150888
0.00156762
0.00167354
0.00181862
0.00199251
0.00218428
0.00238403
0.00258433
0.00278113
0.00297426
0.00316721
0.00336646
0.00358032
0.00381746
0.00408527
0.00438836
0.00472723
0.00509739
0.00548895
0.00588682
0.00627145
0.00662013
0.00690862
0.00711312
0.00721227
0.00718907
0.00703249
0.00673865
0.00631152
0.00576287
0.00511168
0.00438298
0.00360611
0.00281277
0.00203482
0.00130216
0.000640838
7.15159e-005
-0.000391484
-0.00074057
-0.000974602
-0.00109801
-0.00111937
-0.00104959
-0.000899835
-0.000679432
-0.000393911
-4.33861e-005
0.000378566
0.000885406
0.00149744
0.00224089
0.00314633
0.00424648
0.00557356
0.00715634
0.00901717
0.0111691
0.0136133
0.0163374
0.0193137
0.0224996
0.0258377
0.0292578
0.0326792
0.0360145
0.0391735
0.0420676
0.0446149
0.0467446
0.0484009
0.0495469
0.0501666
0.0502666
0.0498759
0.0490447
0.0478425
0.0463539
0.044675
0.0429081
0.0411564
0.039519
0.0380857
0.0369327
0.0361187
0.035682
0.0356393
0.035985
0.0366921
0.0377141
0.0389885
0.0404404
0.0419871
0.0435431
0.045025
0.0463561
0.0474702
0.0483151
0.0488546
0.0490694
0.0489573
0.0485323
0.047822
0.0468655
0.0457101
0.0444076
0.0430113
0.0415727
0.0401389
0.0387503
0.0374391
0.0362285
0.0351328
0.034157
0.0332986
0.0325479
0.0318901
0.0313066
0.0307766
0.0302785
0.0297914
0.0292959
0.0287755
0.0282167
0.0276096
0.0269483
0.026231
0.0254597
0.0246401
0.0237817
0.0228971
0.0220018
0.0211137
0.0202528
0.0194399
0.0186967
0.018044
0.0175014
0.0170857
0.0168098
0.0166818
0.0167035
0.01687
0.0171687
0.0175794
0.0180744
0.0186197
0.0191762
0.0197021
0.0201552
0.0204958
0.02069
0.020713
0.0205513
0.0202057
0.0196921
0.0190427
0.0183045
0.0175381
0.0168141
0.0162089
0.0157996
0.0156577
0.0158432
0.0163985
0.0173425
0.018666
0.0203289
0.0222577
0.0243466
0.0264592
0.0284332
0.0300863
0.0312242
0.0316496
0.0311721
0.0296183
0.0268419
0.0227326
0.0172245
0.0103013
0.00200179
-0.0075792
-0.0182904
-0.0299267
-0.0422335
-0.054913
-0.0676319
-0.0800299
-0.0917293
-0.102345
-0.111495
-0.118809
-0.123939
-0.126572
-0.12643
-0.123291
-0.116984
-0.107406
-0.0945232
-0.078378
-0.059092
-0.0368689
-0.011995
0.0151626
0.0441598
0.0744824
0.105556
0.136757
0.16743
0.196901
0.224504
0.249592
0.271565
0.28989
0.304119
0.313907
0.319027
0.319379
0.314999
0.306056
0.292845
0.27578
0.255374
0.232217
0.206953
0.180247
0.152763
0.125132
0.0979269
0.0716459
0.0466938
0.0233742
0.00188624
-0.0176728
-0.0352988
-0.0510687
-0.065125
-0.077658
-0.088888
-0.0990482
-0.108369
-0.117063
-0.125318
-0.133286
-0.141078
-0.148767
-0.156384
-0.163926
-0.171358
-0.178618
-0.185632
-0.192313
-0.198574
-0.204336
-0.209533
-0.214119
-0.218074
-0.221404
-0.224146
-0.226366
-0.228158
-0.229634
-0.230928
-0.232177
-0.23352
-0.235085
-0.236977
-0.239274
-0.242015
-0.245194
-0.248756
-0.252601
-0.256578
-0.2605
-0.264143
-0.267267
-0.269619
-0.270957
-0.271055
-0.269725
-0.26682
-0.262252
-0.255989
-0.248064
-0.238572
-0.227661
-0.21553
-0.202414
-0.188573
-0.174278
-0.1598
-0.145394
-0.131293
-0.117696
-0.104761
-0.0926057
-0.0813042
-0.0708889
-0.0613551
-0.0526664
-0.0447619
-0.0375631
-0.0309822
-0.0249291
-0.0193178
-0.0140722
-0.00912999
-0.00444536
9.73673e-006
0.00424592
0.00825794
0.0120274
0.0155264
0.0187214
0.0215777
0.0240638
0.0261546
0.0278355
0.0291038
0.0299704
0.0304602
0.030611
0.0304723
0.0301025
0.029566
0.0289299
0.0282605
0.0276197
0.027062
0.0266318
0.0263612
0.0262689
0.0263594
0.0266238
0.0270404
0.0275772
0.0281937
0.0288449
0.0294837
0.0300649
0.0305483
0.0309016
0.0311026
0.0311412
0.0310195
0.0307522
0.030365
0.0298929
0.0293775
0.0288636
0.0283964
0.0280173
0.0277615
0.0276548
0.0277124
0.0279374
0.0283209
0.0288428
0.0294733
0.0301753
0.030907
0.0316248
0.0322864
0.032853
0.0332918
0.033578
0.0336949
0.0336355
0.0334014
0.0330025
0.032456
0.0317846
0.0310156
0.0301782
0.0293031
0.0284201
0.0275572
0.0267395
0.0259885
0.0253217
0.0247521
0.0242887
0.0239367
0.0236977
0.0235704
0.0235513
0.023635
0.0238141
0.0240802
0.0244232
0.0248312
0.0252906
0.0257853
0.026297
0.0268048
0.0272856
0.0277149
0.0280669
0.0283167
0.028441
0.0284199
0.0282385
0.0278881
0.0273677
0.0266842
0.0258532
0.0248981
0.0238495
0.0227438
0.0216209
0.0205227
0.0194901
0.018561
0.017768
0.0171362
0.016682
0.0164123
0.0163235
0.0164025
0.0166274
0.0169691
0.0173933
0.0178632
0.0183418
0.0187947
0.0191927
0.0195133
0.0197431
0.0198777
0.0199225
0.0198922
0.0198088
0.0197007
0.0195996
0.019538
0.0195466
0.0196514
0.0198714
0.0202166
0.0206865
0.0212699
0.0219448
0.0226794
0.0234342
0.0241645
0.0248233
0.0253648
0.0257481
0.0259403
0.0259195
0.025677
0.0252186
0.024565
0.0237508
0.0228224
0.0218357
0.0208516
0.0199328
0.0191385
0.018521
0.018122
0.0179692
0.0180752
0.0184364
0.0190337
0.0198341
0.0207935
0.0218596
0.0229761
0.0240863
0.0251367
0.0260808
0.0268806
0.0275095
0.0279524
0.0282057
0.0282768
0.0281824
0.0279465
0.0275982
0.0271695
0.0266927
0.0261988
0.0257156
0.0252665
0.0248702
0.02454
0.0242838
0.0241052
0.0240031
0.0239731
0.0240077
0.0240969
0.0242287
0.0243895
0.0245645
0.0247379
0.0248932
0.0250143
0.0250859
0.0250947
0.0250299
0.0248851
0.0246585
0.0243537
0.0239803
0.0235534
0.023093
0.0226228
0.0221682
0.0217548
0.021406
0.0211408
0.0209725
0.0209069
0.0209419
0.0210674
0.021266
0.0215142
0.0217845
0.0220472
0.0222731
0.0224353
0.0225118
0.0224866
0.0223508
0.0221033
0.0217505
0.0213054
0.0207864
0.0202163
0.0196197
0.0190219
0.0184467
0.0179156
0.017446
0.0170508
0.0167375
0.0165088
0.0163618
0.0162888
0.0162776
0.016312
0.0163724
0.0164362
0.0164791
0.016475
0.0163982
0.0162233
0.0159276
0.0154919
0.0149021
0.014151
0.0132388
0.0121746
0.0109764
0.0096709
0.00829264
0.0068823
0.00548456
0.00414539
0.00290901
0.00181482
0.00089441
0.00016902
-0.000352399
-0.000674286
-0.000814624
-0.000804084
-0.000684184
-0.00050457
-0.000319603
-0.0001845
-0.000151318
-0.000265099
-0.00056047
-0.00105899
-0.00176745
-0.00267727
-0.00376505
-0.00499429
-0.00631804
-0.00768238
-0.00903042
-0.0103065
-0.0114602
-0.0124501
-0.0132467
-0.0138342
-0.0142119
-0.0143936
-0.0144064
-0.0142884
-0.0140856
-0.0138479
-0.0136256
-0.0134647
-0.013404
-0.0134715
-0.0136826
-0.0140389
-0.0145282
-0.0151254
-0.0157949
-0.0164934
-0.0171736
-0.0177879
-0.0182925
-0.0186505
-0.0188354
-0.0188328
-0.0186415
-0.0182736
-0.0177533
-0.0171147
-0.0163993
-0.0156524
-0.0149199
-0.0142445
-0.013663
-0.0132035
-0.012884
-0.0127114
-0.0126811
-0.0127787
-0.0129802
-0.0132553
-0.0135691
-0.0138849
-0.014167
-0.0143832
-0.0145069
-0.0145192
-0.0144099
-0.0141781
-0.0138322
-0.0133891
-0.0128731
-0.0123137
-0.0117438
-0.011197
-0.0107054
-0.010297
-0.00999376
-0.00981019
-0.00975208
-0.00981614
-0.00999017
-0.0102539
-0.0105802
-0.0109373
-0.0112904
-0.0116046
-0.0118469
-0.0119886
-0.0120074
-0.0118885
-0.011626
-0.0112231
-0.0106917
-0.0100519
-0.00933014
-0.00855751
-0.00776785
-0.00699536
-0.00627253
-0.00562814
-0.00508572
-0.00466233
-0.00436782
-0.00420466
-0.00416811
-0.00424686
-0.00442401
-0.00467829
-0.00498538
-0.00531938
-0.00565424
-0.00596514
-0.00622963
-0.00642871
-0.00654756
-0.00657607
-0.00650906
-0.00634622
-0.00609184
-0.00575422
-0.00534501
-0.00487838
-0.00437015
-0.00383689
-0.00329509
-0.00276046
-0.00224724
-0.00176775
-0.00133205
-0.000947831
-0.000620327
-0.000352541
-0.000145506
1.32297e-006
8.9615e-005
0.000121703
0.000100172
2.75411e-005
-9.38891e-005
-0.000262018
-0.00047472
-0.000729438
-0.00102263
-0.00134915
-0.00170161
-0.0020699
-0.00244088
-0.00279837
-0.00312358
-0.00339578
-0.00359346
-0.00369566
-0.00368358
-0.0035421
-0.00326126
-0.00283738
-0.00227384
-0.00158123
-0.000777098
0.000115049
0.00106707
0.00204798
0.00302595
0.00397028
0.00485331
0.00565195
0.00634876
0.00693255
0.00739836
0.00774698
0.00798398
0.00811858
0.00816222
0.00812731
0.00802607
0.0078697
0.00766787
0.00742856
0.00715826
0.0068624
0.00654588
0.00621369
0.00587136
0.00552523
0.00518243
0.00485058
0.0045372
0.00424893
0.00399066
0.00376462
0.00356969
0.00340098
0.00324965
0.00310331
0.00294668
0.00276268
0.00253386
0.0022439
0.00187935
0.00143115
0.000896103
0.000277961
-0.000411741
-0.00115335
-0.00191914
-0.00267392
-0.00337592
-0.00397829
-0.00443081
-0.004682
-0.00468141
-0.00438208
-0.00374293
-0.00273111
-0.00132409
0.000488669
0.00270446
0.00530664
0.00826456
0.0115341
0.0150587
0.0187712
0.0225958
0.0264509
0.0302515
0.0339125
0.0373516
0.0404925
0.0432676
0.0456207
0.0475094
0.0489064
0.0498012
0.0502005
0.0501283
0.0496251
0.0487466
0.0475616
0.0461496
0.0445979
0.0429979
0.0414415
0.0400173
0.0388066
0.0378796
0.0372918
0.0370815
0.0372669
0.0378449
0.0387911
0.0400599
0.0415875
0.0432939
0.0450883
0.0468732
0.0485502
0.0500259
0.0512168
0.0520541
0.0524878
0.0524889
0.0520505
0.051188
0.0499369
0.0483501
0.0464942
0.0444449
0.0422816
0.0400835
0.0379241
0.0358679
0.0339673
0.0322602
0.0307695
0.0295028
0.0284537
0.0276033
0.0269228
0.0263766
0.0259249
0.0255269
0.025144
0.0247419
0.0242928
0.0237773
0.0231848
0.0225142
0.0217738
0.0209806
0.0201595
0.0193411
0.0185607
0.0178558
0.0172642
0.0168213
0.016558
0.0164985
0.0166586
0.0170436
0.0176477
0.0184533
0.0194313
0.0205419
0.0217364
0.0229595
0.024152
0.0252542
0.0262094
0.0269671
0.0274865
0.0277391
0.0277108
0.0274033
0.0268346
0.0260383
0.0250626
0.0239681
0.0228242
0.0217065
0.0206921
0.0198556
0.019265
0.0189772
0.0190347
0.0194619
0.0202623
0.0214172
0.0228843
0.0245973
0.0264674
0.0283846
0.0302207
0.0318332
0.0330692
0.0337714
0.0337834
0.032956
0.031154
0.0282622
0.0241919
0.0188867
0.012327
0.00453444
-0.00442583
-0.0144435
-0.025363
-0.0369857
-0.0490718
-0.0613452
-0.0734987
-0.0851998
-0.0960983
-0.105833
-0.114042
-0.120369
-0.12447
-0.12603
-0.124765
-0.120433
-0.112848
-0.101882
-0.0874818
-0.06967
-0.0485563
-0.0243409
0.00268233
0.0321259
0.0635116
0.0962773
0.129787
0.163346
0.196216
0.227641
0.256864
0.283161
0.305857
0.324359
0.338178
0.346948
0.350444
0.348594
0.341483
0.329351
0.312583
0.291697
0.267318
0.240148
0.210941
0.180466
0.149473
0.118661
0.0886561
0.0599854
0.033064
0.00818737
-0.0144685
-0.034841
-0.0529685
-0.0689744
-0.0830478
-0.0954231
-0.10636
-0.116126
-0.124978
-0.13315
-0.140844
-0.148225
-0.155413
-0.16249
-0.169495
-0.176434
-0.183284
-0.19
-0.196521
-0.20278
-0.208707
-0.214242
-0.219333
-0.223947
-0.22807
-0.231713
-0.234908
-0.237709
-0.240192
-0.242446
-0.244574
-0.246679
-0.248861
-0.25121
-0.253792
-0.256646
-0.259778
-0.263156
-0.266704
-0.270309
-0.273819
-0.277052
-0.279801
-0.281849
-0.282976
-0.282976
-0.281667
-0.278901
-0.274576
-0.268642
-0.261101
-0.252016
-0.241499
-0.22971
-0.216849
-0.203143
-0.188837
-0.174183
-0.159424
-0.144788
-0.130479
-0.116669
-0.103497
-0.0910628
-0.0794313
-0.0686338
-0.0586723
-0.0495247
-0.0411509
-0.0334987
-0.0265097
-0.0201244
-0.0142862
-0.00894518
-0.00405919
0.000404714
0.00447074
0.00815546
0.0114696
0.0144201
0.0170128
0.0192545
0.021155
0.0227289
0.0239963
0.0249834
0.0257222
0.0262494
0.0266053
0.0268317
0.0269701
0.0270596
0.027135
0.027225
0.0273512
0.0275269
0.0277574
0.0280394
0.0283626
0.0287104
0.0290614
0.0293916
0.0296762
0.0298916
0.0300175
0.0300386
0.029946
0.0297379
0.0294207
0.0290083
0.0285219
0.0279887
0.0274403
0.0269107
0.0264344
0.0260438
0.0257674
0.0256274
0.0256386
0.025807
0.0261296
0.0265937
0.0271784
0.0278554
0.0285904
0.0293453
0.0300808
0.0307579
0.0313406
0.0317977
0.0321045
0.0322442
0.0322081
0.0319965
0.0316177
0.0310878
0.0304293
0.0296696
0.0288393
0.0279707
0.0270957
0.0262444
0.0254438
0.0247162
0.024079
0.0235436
0.0231154
0.0227941
0.022574
0.0224447
0.0223923
0.0223999
0.0224497
0.0225233
0.0226035
0.022675
0.022725
0.0227442
0.0227266
0.0226697
0.0225742
0.0224432
0.0222818
0.0220962
0.0218931
0.0216785
0.0214575
0.0212337
0.0210092
0.0207845
0.0205589
0.0203308
0.0200987
0.0198614
0.0196191
0.0193737
0.0191291
0.0188916
0.0186694
0.0184725
0.0183119
0.0181988
0.0181438
0.0181557
0.018241
0.0184031
0.0186416
0.0189526
0.0193283
0.0197581
0.0202286
0.020725
0.0212318
0.0217341
0.0222182
0.0226731
0.0230906
0.0234659
0.0237975
0.0240875
0.0243402
0.0245623
0.0247615
0.0249456
0.0251218
0.0252958
0.0254715
0.0256503
0.0258314
0.0260121
0.0261882
0.0263547
0.0265069
0.0266409
0.0267548
0.0268487
0.0269259
0.0269922
0.027056
0.0271278
0.0272195
0.0273429
0.0275093
0.0277281
0.0280056
0.0283447
0.0287439
0.0291977
0.0296959
0.030225
0.0307684
0.0313075
0.031823
0.0322959
0.0327092
0.0330482
0.0333021
0.033464
0.0335317
0.0335072
0.033397
0.0332108
0.0329615
0.0326637
0.0323332
0.0319858
0.0316361
0.0312976
0.0309813
0.0306954
0.0304457
0.0302351
0.0300642
0.0299318
0.0298351
0.0297707
0.0297349
0.0297245
0.0297367
0.0297694
0.0298211
0.0298906
0.0299763
0.030076
0.030186
0.0303011
0.0304137
0.0305145
0.0305922
0.0306346
0.0306292
0.0305642
0.0304301
0.0302204
0.0299326
0.0295693
0.0291379
0.0286509
0.0281249
0.0275798
0.0270369
0.0265177
0.0260419
0.0256256
0.0252801
0.0250106
0.024816
0.0246885
0.0246146
0.0245759
0.0245507
0.0245162
0.0244497
0.0243313
0.024145
0.0238801
0.023532
0.0231023
0.0225986
0.0220333
0.0214223
0.0207836
0.0201347
0.0194919
0.0188676
0.0182701
0.017702
0.0171608
0.0166385
0.016123
0.015599
0.0150498
0.0144587
0.0138105
0.0130932
0.0122987
0.011424
0.0104708
0.00944584
0.00836005
0.00722778
0.00606559
0.00489113
0.00372186
0.00257402
0.00146176
0.000396545
-0.000613153
-0.00156185
-0.00244679
-0.00326748
-0.00402507
-0.00472172
-0.00535998
-0.00594225
-0.00647049
-0.00694604
-0.00736977
-0.00774232
-0.00806467
-0.00833867
-0.00856769
-0.0087572
-0.0089152
-0.00905242
-0.00918221
-0.00932016
-0.00948335
-0.0096893
-0.00995473
-0.0102942
-0.0107186
-0.0112341
-0.0118412
-0.0125341
-0.0133006
-0.0141226
-0.0149772
-0.0158378
-0.0166762
-0.0174642
-0.0181754
-0.0187875
-0.0192831
-0.019651
-0.0198871
-0.0199936
-0.0199795
-0.0198588
-0.01965
-0.0193742
-0.0190536
-0.0187101
-0.0183638
-0.0180317
-0.017727
-0.0174586
-0.0172307
-0.0170436
-0.0168933
-0.0167734
-0.0166751
-0.0165891
-0.016506
-0.0164176
-0.0163177
-0.0162023
-0.0160702
-0.0159226
-0.0157632
-0.0155969
-0.0154301
-0.0152687
-0.0151182
-0.0149826
-0.014864
-0.0147618
-0.0146736
-0.0145943
-0.0145176
-0.0144359
-0.0143415
-0.0142272
-0.0140871
-0.0139175
-0.013717
-0.0134867
-0.0132305
-0.0129543
-0.0126658
-0.0123735
-0.0120859
-0.0118107
-0.0115539
-0.0113193
-0.011108
-0.0109183
-0.0107455
-0.010583
-0.0104225
-0.0102551
-0.0100722
-0.00986667
-0.00963368
-0.00937151
-0.00908196
-0.00877043
-0.0084457
-0.00811923
-0.00780416
-0.00751404
-0.00726151
-0.00705687
-0.00690681
-0.00681354
-0.00677419
-0.00678076
-0.00682062
-0.00687746
-0.00693272
-0.00696733
-0.00696355
-0.00690683
-0.00678744
-0.00660165
-0.00635237
-0.00604924
-0.00570796
-0.00534906
-0.00499612
-0.00467361
-0.00440467
-0.00420872
-0.00409958
-0.00408381
-0.00415983
-0.00431765
-0.0045394
-0.00480056
-0.00507176
-0.00532114
-0.00551689
-0.00562984
-0.00563588
-0.00551797
-0.00526761
-0.00488555
-0.00438181
-0.00377498
-0.00309075
-0.00235997
-0.00161628
-0.000893621
-0.000223634
0.000366565
0.000856297
0.00123265
0.00149117
0.00163584
0.00167843
0.0016372
0.00153518
0.00139806
0.001252
0.00112151
0.00102746
0.000985625
0.00100558
0.00109024
0.00123596
0.00143316
0.00166741
0.00192087
0.00217397
0.00240708
0.00260224
0.00274459
0.00282357
0.00283366
0.00277481
0.00265234
0.00247648
0.00226157
0.00202491
0.00178552
0.00156275
0.00137501
0.00123852
0.00116641
0.00116798
0.00124836
0.00140845
0.00164523
0.00195221
0.00232025
0.00273834
0.00319453
0.00367671
0.00417334
0.00467396
0.00516946
0.00565211
0.00611544
0.00655388
0.00696238
0.00733594
0.00766929
0.00795665
0.00819173
0.00836786
0.00847847
0.00851759
0.00848055
0.00836466
0.00816985
0.0078991
0.00755868
0.00715808
0.0067096
0.00622765
0.00572784
0.00522578
0.00473593
0.00427044
0.00383822
0.00344434
0.00308979
0.00277181
0.00248461
0.00222058
0.00197185
0.00173201
0.00149792
0.00127132
0.00106019
0.00087953
0.000751642
0.00070572
0.000776771
0.00100392
0.00142819
0.0020899
0.00302579
0.0042662
0.00583235
0.00773395
0.00996742
0.0125147
0.015343
0.018405
0.0216406
0.0249787
0.0283404
0.0316424
0.0348005
0.037734
0.0403694
0.042644
0.0445089
0.0459313
0.046896
0.0474057
0.047481
0.0471589
0.0464907
0.0455394
0.0443768
0.0430798
0.0417272
0.0403961
0.0391589
0.0380806
0.0372163
0.0366093
0.0362895
0.0362732
0.036562
0.0371436
0.0379926
0.0390716
0.0403331
0.0417217
0.0431768
0.0446352
0.0460339
0.0473131
0.0484184
0.0493035
0.0499319
0.0502781
0.0503285
0.0500814
0.0495467
0.0487445
0.0477039
0.0464607
0.0450554
0.0435311
0.0419306
0.040295
0.0386613
0.0370612
0.03552
0.0340561
0.032681
0.0313994
0.03021
0.0291071
0.0280811
0.0271204
0.0262129
0.0253472
0.0245135
0.0237051
0.0229189
0.0221554
0.0214192
0.0207182
0.0200637
0.0194691
0.0189493
0.0185196
0.0181948
0.0179878
0.017909
0.0179651
0.0181583
0.018486
0.0189396
0.019505
0.0201624
0.0208865
0.0216473
0.022411
0.0231415
0.0238016
0.0243552
0.0247687
0.0250137
0.0250683
0.0249193
0.0245634
0.0240084
0.023274
0.0223911
0.0214015
0.0203566
0.0193144
0.0183376
0.0174895
0.0168305
0.0164137
0.0162812
0.0164597
0.0169572
0.0177603
0.0188319
0.0201109
0.0215121
0.0229284
0.0242332
0.0252854
0.0259341
0.0260251
0.0254078
0.0239422
0.021506
0.0180011
0.0133601
0.00755091
0.000580715
-0.00750119
-0.0166023
-0.0265872
-0.0372784
-0.0484594
-0.0598781
-0.0712509
-0.0822685
-0.0926008
-0.101904
-0.109827
-0.11602
-0.120141
-0.121864
-0.120892
-0.116963
-0.109863
-0.0994324
-0.0855831
-0.0683025
-0.0476647
-0.0238377
0.00291229
0.0322188
0.0636164
0.0965462
0.130366
0.164362
0.197771
0.2298
0.259649
0.286544
0.309761
0.328658
0.342697
0.351475
0.354737
0.352392
0.344521
0.331374
0.313362
0.291041
0.265084
0.236257
0.20538
0.173292
0.140814
0.108713
0.0776726
0.0482693
0.0209527
-0.00396176
-0.0262952
-0.0459985
-0.0631398
-0.0778864
-0.0904838
-0.101232
-0.110461
-0.11851
-0.125709
-0.132355
-0.13871
-0.14498
-0.151322
-0.157833
-0.16456
-0.1715
-0.178611
-0.185817
-0.193022
-0.200118
-0.206997
-0.213557
-0.21971
-0.225395
-0.230573
-0.235238
-0.239411
-0.243141
-0.246499
-0.249572
-0.252457
-0.255246
-0.258023
-0.260853
-0.263769
-0.266772
-0.269823
-0.272842
-0.275711
-0.278276
-0.280358
-0.281761
-0.282282
-0.281729
-0.279928
-0.276738
-0.272059
-0.265842
-0.258091
-0.248864
-0.238272
-0.226472
-0.213659
-0.200058
-0.185908
-0.171454
-0.156937
-0.142578
-0.128575
-0.115096
-0.102272
-0.0902004
-0.0789418
-0.0685243
-0.0589476
-0.0501881
-0.0422046
-0.0349441
-0.0283473
-0.0223534
-0.0169039
-0.0119455
-0.00743187
-0.00332473
0.000406602
0.0037858
0.00683082
0.00955557
0.0119715
0.0140894
0.0159206
0.0174782
0.0187778
0.0198379
0.0206798
0.0213273
0.0218064
0.0221441
0.022368
0.0225049
0.0225804
0.0226178
0.0226376
0.0226566
0.0226879
0.0227406
0.0228195
0.0229258
0.0230571
0.023208
0.023371
0.023537
0.0236962
0.023839
0.023957
0.0240435
0.024094
0.0241071
0.0240844
0.0240302
0.023952
0.0238592
0.0237629
0.0236747
0.0236057
0.0235659
0.0235625
0.0235999
0.0236784
0.0237944
0.0239402
0.0241043
0.0242721
0.0244266
0.0245495
0.0246221
0.024627
0.0245486
0.0243745
0.0240966
0.0237109
0.0232188
0.022627
0.0219468
0.0211944
0.0203899
0.019556
0.0187175
0.0178994
0.0171261
0.0164195
0.0157981
0.0152754
0.0148598
0.0145532
0.0143515
0.0142446
0.0142169
0.0142492
0.0143192
0.014404
0.0144813
0.0145316
0.0145398
0.014496
0.0143969
0.0142457
0.0140519
0.0138304
0.0136006
0.013384
0.0132031
0.0130786
0.0130284
0.0130655
0.0131969
0.013423
0.0137376
0.0141281
0.0145768
0.0150617
0.0155587
0.0160428
0.0164906
0.0168809
0.017197
0.0174269
0.0175642
0.0176079
0.0175621
0.017435
0.0172385
0.0169862
0.016693
0.0163736
0.0160417
0.0157093
0.0153866
0.0150817
0.0148011
0.01455
0.0143325
0.0141528
0.0140153
0.0139251
0.0138884
0.0139125
0.0140052
0.0141749
0.0144299
0.0147773
0.0152225
0.0157682
0.0164137
0.0171546
0.0179818
0.0188824
0.0198391
0.0208316
0.021837
0.022831
0.0237898
0.0246905
0.0255135
0.0262428
0.0268677
0.0273828
0.0277888
0.0280922
0.0283045
0.0284417
0.028523
0.028569
0.0286004
0.0286365
0.0286935
0.0287832
0.0289128
0.0290839
0.0292929
0.0295317
0.0297886
0.0300497
0.0303004
0.0305273
0.0307193
0.0308692
0.0309743
0.031037
0.0310645
0.0310684
0.0310636
0.031067
0.031096
0.0311669
0.0312933
0.0314852
0.0317477
0.0320805
0.0324782
0.0329304
0.0334224
0.0339365
0.0344529
0.0349518
0.0354137
0.0358217
0.0361615
0.036423
0.0365997
0.0366896
0.0366944
0.0366192
0.0364716
0.0362612
0.0359985
0.0356945
0.0353597
0.0350035
0.0346345
0.0342597
0.0338847
0.033514
0.0331507
0.0327972
0.0324555
0.0321266
0.0318115
0.0315105
0.0312235
0.0309496
0.0306868
0.0304318
0.0301799
0.0299244
0.0296571
0.0293682
0.0290467
0.0286814
0.0282612
0.0277765
0.0272202
0.0265882
0.0258808
0.0251032
0.0242653
0.0233821
0.0224727
0.0215592
0.020666
0.0198172
0.0190354
0.01834
0.0177453
0.0172596
0.0168841
0.0166128
0.0164327
0.016325
0.0162657
0.0162279
0.0161836
0.0161055
0.015969
0.0157543
0.0154471
0.01504
0.0145327
0.0139315
0.0132494
0.0125038
0.011716
0.0109089
0.0101054
0.0093263
0.00858946
0.00790808
0.00729012
0.00673808
0.00624913
0.00581575
0.0054268
0.00506867
0.00472674
0.00438672
0.00403587
0.00366402
0.00326424
0.0028331
0.00237065
0.00188001
0.0013667
0.000837814
0.000301105
-0.000235883
-0.000766577
-0.00128593
-0.00179076
-0.00227978
-0.00275347
-0.00321369
-0.00366311
-0.00410464
-0.00454078
-0.00497305
-0.00540152
-0.00582453
-0.00623858
-0.00663843
-0.0070174
-0.00736787
-0.00768182
-0.00795155
-0.00817032
-0.00833305
-0.00843681
-0.00848126
-0.0084688
-0.00840469
-0.00829676
-0.00815515
-0.00799167
-0.00781924
-0.00765107
-0.00749997
-0.00737753
-0.00729353
-0.00725531
-0.00726744
-0.00733149
-0.00744602
-0.00760681
-0.00780724
-0.00803888
-0.00829222
-0.00855739
-0.00882503
-0.00908703
-0.00933717
-0.00957159
-0.00978906
-0.00999098
-0.0101811
-0.0103652
-0.0105502
-0.0107433
-0.0109513
-0.0111798
-0.0114318
-0.0117081
-0.0120059
-0.0123196
-0.0126402
-0.0129564
-0.0132548
-0.0135211
-0.0137407
-0.0139
-0.0139875
-0.013994
-0.013914
-0.0137458
-0.0134918
-0.0131586
-0.0127566
-0.0122998
-0.0118049
-0.0112906
-0.0107771
-0.0102845
-0.00983251
-0.00943915
-0.0091201
-0.00888793
-0.00875151
-0.00871563
-0.0087807
-0.00894275
-0.00919353
-0.0095209
-0.00990929
-0.0103405
-0.0107943
-0.0112499
-0.0116864
-0.0120842
-0.0124259
-0.0126976
-0.0128888
-0.0129941
-0.0130125
-0.0129478
-0.0128087
-0.0126075
-0.0123597
-0.0120828
-0.0117955
-0.0115159
-0.0112606
-0.0110435
-0.0108748
-0.0107601
-0.0107005
-0.0106918
-0.0107252
-0.0107878
-0.0108635
-0.0109338
-0.0109799
-0.0109833
-0.0109277
-0.0108
-0.0105915
-0.0102987
-0.00992374
-0.00947422
-0.00896312
-0.00840797
-0.00782975
-0.00725161
-0.00669739
-0.00618997
-0.00574981
-0.00539351
-0.00513268
-0.00497306
-0.00491412
-0.00494896
-0.00506476
-0.00524349
-0.00546306
-0.00569869
-0.00592445
-0.00611491
-0.00624664
-0.00629971
-0.00625882
-0.00611423
-0.00586219
-0.00550513
-0.00505138
-0.00451453
-0.0039125
-0.00326637
-0.00259906
-0.0019339
-0.00129333
-0.000697627
-0.000163918
0.000294554
0.000668848
0.000954395
0.00115077
0.00126119
0.00129181
0.00125093
0.00114824
0.000994047
0.000798823
0.000572869
0.00032627
6.90587e-005
-0.000188455
-0.000435288
-0.000659406
-0.00084749
-0.000984934
-0.00105613
-0.00104512
-0.00093652
-0.000716737
-0.000375373
9.33713e-005
0.000689396
0.00140567
0.0022276
0.00313299
0.00409244
0.00507056
0.00602754
0.00692126
0.00770979
0.00835383
0.0088193
0.00907952
0.00911702
0.00892483
0.00850699
0.00787848
0.00706435
0.00609831
0.00502074
0.00387636
0.00271172
0.00157266
0.00050199
-0.000462498
-0.00128953
-0.00195526
-0.00244356
-0.00274563
-0.00285914
-0.00278682
-0.00253479
-0.00211066
-0.0015218
-0.000773742
0.00013104
0.00119375
0.00241935
0.00381591
0.00539347
0.00716224
0.00913051
0.0113023
0.0136753
0.0162384
0.0189708
0.0218408
0.0248055
0.0278125
0.0308006
0.0337029
0.0364499
0.0389728
0.0412077
0.0430987
0.0446018
0.0456876
0.0463432
0.0465735
0.0464012
0.0458664
0.0450243
0.0439432
0.0427005
0.0413799
0.0400665
0.038843
0.037786
0.0369615
0.0364227
0.0362067
0.0363334
0.0368042
0.0376022
0.0386937
0.0400297
0.0415486
0.04318
0.0448484
0.0464771
0.047992
0.0493258
0.0504206
0.0512307
0.0517239
0.0518827
0.0517036
0.0511968
0.0503844
0.0492981
0.0479774
0.0464663
0.0448114
0.0430592
0.0412541
0.0394365
0.0376418
0.0358992
0.0342317
0.0326554
0.0311804
0.0298114
0.0285483
0.0273873
0.0263222
0.0253454
0.024449
0.0236254
0.0228683
0.0221731
0.0215372
0.0209599
0.0204425
0.019988
0.0196006
0.0192856
0.0190485
0.0188951
0.0188306
0.0188594
0.0189843
0.0192063
0.019524
0.0199331
0.0204257
0.0209906
0.0216124
0.0222722
0.0229476
0.0236134
0.0242429
0.024809
0.0252858
0.0256505
0.0258851
0.0259783
0.0259265
0.0257354
0.0254202
0.0250059
0.0245261
0.0240224
0.0235418
0.0231345
0.0228512
0.0227395
0.0228408
0.0231871
0.0237981
0.0246785
0.025816
0.0271802
0.0287219
0.0303735
0.0320502
0.0336519
0.0350663
0.0361722
0.036844
0.0369558
0.0363869
0.0350265
0.0327787
0.0295673
0.0253398
0.0200713
0.0137671
0.00646452
-0.00176583
-0.01082
-0.0205614
-0.0308224
-0.0414063
-0.0520903
-0.0626287
-0.0727563
-0.0821929
-0.0906473
-0.0978224
-0.103421
-0.107152
-0.108738
-0.10792
-0.104472
-0.098206
-0.0889818
-0.0767195
-0.0614071
-0.0431097
-0.0219763
0.00175526
0.0277568
0.0556111
0.084817
0.114799
0.144921
0.174502
0.202838
0.229225
0.252981
0.273477
0.290155
0.302555
0.310335
0.313284
0.311336
0.304571
0.293213
0.277625
0.258287
0.23578
0.210757
0.183916
0.155964
0.127591
0.099442
0.0720863
0.0460034
0.0215677
-0.000957921
-0.0214225
-0.0397806
-0.0560812
-0.0704526
-0.0830846
-0.0942096
-0.104084
-0.112969
-0.121118
-0.128759
-0.13609
-0.143267
-0.150404
-0.157572
-0.1648
-0.172076
-0.179359
-0.186582
-0.193658
-0.200493
-0.206989
-0.213058
-0.218622
-0.223624
-0.228033
-0.231844
-0.235082
-0.237802
-0.240084
-0.242028
-0.243751
-0.245374
-0.247014
-0.248776
-0.250741
-0.252957
-0.255436
-0.258143
-0.261003
-0.263893
-0.266655
-0.269098
-0.271013
-0.272181
-0.272388
-0.271437
-0.269162
-0.265436
-0.260182
-0.253375
-0.245043
-0.235269
-0.224184
-0.211961
-0.198804
-0.184942
-0.170613
-0.156056
-0.141504
-0.127171
-0.113247
-0.0998963
-0.0872486
-0.0754029
-0.0644256
-0.0543529
-0.0451933
-0.0369318
-0.0295335
-0.0229481
-0.0171143
-0.0119635
-0.00742373
-0.00342289
0.000108748
0.00323631
0.00601878
0.0085079
0.0107477
0.0127741
0.0146155
0.0162932
0.0178219
0.0192111
0.020466
0.021589
0.0225806
0.0234407
0.02417
0.0247705
0.0252469
0.0256065
0.02586
0.0260215
0.026108
0.0261395
0.0261379
0.0261263
0.026128
0.0261652
0.0262579
0.0264225
0.0266708
0.0270089
0.0274367
0.0279469
0.0285261
0.0291541
0.0298056
0.0304512
0.0310591
0.031597
0.032034
0.0323427
0.0325007
0.0324922
0.0323088
0.0319498
0.0314228
0.0307422
0.029929
0.0290089
0.0280112
0.0269666
0.0259059
0.0248583
0.0238503
0.0229046
0.0220396
0.021269
0.0206018
0.0200432
0.0195946
0.0192542
0.0190182
0.018881
0.0188359
0.0188753
0.0189909
0.0191737
0.0194136
0.0196996
0.0200194
0.0203589
0.020703
0.0210353
0.0213387
0.0215965
0.0217934
0.0219162
0.0219554
0.0219063
0.0217698
0.0215526
0.021268
0.0209348
0.0205766
0.0202202
0.0198937
0.019624
0.0194346
0.0193432
0.0193597
0.0194848
0.0197087
0.020012
0.0203657
0.0207336
0.0210742
0.0213439
0.0215004
0.0215059
0.0213303
0.0209538
0.0203691
0.0195823
0.0186136
0.0174958
0.0162733
0.0149989
0.0137314
0.0125313
0.0114575
0.0105637
0.00989482
0.00948479
0.00935433
0.00951002
0.00994422
0.0106358
0.0115517
0.0126493
0.0138788
0.0151868
0.0165188
0.0178223
0.0190496
0.0201601
0.0211216
0.0219116
0.0225178
0.0229381
0.0231794
0.0232571
0.023193
0.023014
0.0227499
0.0224314
0.0220886
0.0217495
0.0214382
0.0211746
0.0209735
0.0208447
0.020793
0.0208188
0.0209187
0.0210867
0.0213145
0.0215927
0.0219117
0.0222615
0.0226331
0.0230176
0.023407
0.0237937
0.0241705
0.0245303
0.0248663
0.0251722
0.0254421
0.0256714
0.0258572
0.0259989
0.026099
0.0261634
0.0262018
0.0262276
0.026257
0.0263086
0.0264021
0.0265564
0.0267882
0.0271102
0.0275294
0.0280462
0.0286531
0.0293347
0.0300682
0.0308239
0.0315673
0.0322605
0.0328652
0.0333446
0.0336662
0.0338038
0.0337398
0.0334662
0.0329855
0.0323108
0.0314656
0.0304821
0.0293998
0.0282633
0.0271197
0.0260162
0.0249971
0.0241019
0.0233627
0.0228031
0.0224365
0.0222661
0.022285
0.0224768
0.0228167
0.0232735
0.0238112
0.0243913
0.024975
0.025525
0.026008
0.0263953
0.0266653
0.0268033
0.0268027
0.0266644
0.0263969
0.0260152
0.0255398
0.0249949
0.0244074
0.0238044
0.0232122
0.022654
0.022149
0.0217111
0.0213481
0.0210617
0.0208475
0.0206957
0.020592
0.0205186
0.0204561
0.0203842
0.0202838
0.0201377
0.0199322
0.0196573
0.0193077
0.0188826
0.0183859
0.0178259
0.0172143
0.0165656
0.0158963
0.0152235
0.0145639
0.0139325
0.0133419
0.0128011
0.0123146
0.0118825
0.0114995
0.0111557
0.0108368
0.0105249
0.0101995
0.009839
0.00942203
0.00892897
0.00834349
0.00765384
0.00685401
0.0059445
0.00493273
0.00383309
0.00266645
0.00145932
0.000242556
-0.000950222
-0.0020845
-0.0031269
-0.00404722
-0.00482042
-0.00542842
-0.00586149
-0.0061193
-0.00621125
-0.00615635
-0.0059823
-0.00572398
-0.00542137
-0.00511695
-0.00485291
-0.00466819
-0.00459573
-0.00466003
-0.00487532
-0.00524442
-0.00575849
-0.0063975
-0.00713171
-0.00792373
-0.00873117
-0.00950975
-0.0102164
-0.0108123
-0.0112656
-0.0115537
-0.0116646
-0.0115976
-0.0113633
-0.0109828
-0.0104858
-0.00990896
-0.00929312
-0.00868082
-0.00811357
-0.00762946
-0.00726103
-0.00703353
-0.00696384
-0.00705984
-0.00732032
-0.00773553
-0.00828797
-0.00895372
-0.0097039
-0.0105063
-0.0113273
-0.0121331
-0.0128921
-0.0135756
-0.0141596
-0.0146257
-0.0149618
-0.0151625
-0.0152294
-0.0151707
-0.0150006
-0.0147385
-0.0144077
-0.0140339
-0.0136435
-0.0132624
-0.0129137
-0.0126166
-0.0123852
-0.0122272
-0.0121437
-0.0121289
-0.0121707
-0.0122511
-0.0123479
-0.0124358
-0.0124887
-0.0124811
-0.0123903
-0.0121985
-0.0118936
-0.0114712
-0.0109344
-0.0102947
-0.0095706
-0.00878731
-0.00797451
-0.00716456
-0.00639005
-0.00568142
-0.00506465
-0.00455922
-0.00417662
-0.00391949
-0.00378145
-0.00374768
-0.00379627
-0.00390002
-0.00402884
-0.00415221
-0.00424176
-0.00427353
-0.0042299
-0.00410082
-0.0038845
-0.00358721
-0.00322249
-0.00280969
-0.00237209
-0.00193469
-0.00152191
-0.00115552
-0.0008528
-0.000625197
-0.000477614
-0.00040827
-0.000409207
-0.000467323
-0.000565823
-0.000685941
-0.000808759
-0.000916939
-0.000996234
-0.00103664
-0.00103311
-0.000985778
-0.000899724
-0.000784297
-0.00065209
-0.000517671
-0.00039617
-0.000301859
-0.000246821
-0.00023981
-0.000285382
-0.000383358
-0.000528628
-0.00071134
-0.000917417
-0.0011294
-0.00132751
-0.00149098
-0.00159936
-0.00163395
-0.00157913
-0.00142352
-0.00116095
-0.000791155
-0.000320048
0.000240271
0.000871969
0.00155228
0.00225467
0.00295025
0.00360945
0.00420377
0.00470747
0.0050993
0.00536379
0.00549241
0.00548423
0.00534616
0.00509272
0.00474536
0.00433133
0.00388223
0.00343219
0.0030159
0.00266653
0.00241366
0.00228132
0.00228635
0.00243705
0.00273233
0.00316149
0.00370443
0.00433262
0.00501055
0.00569767
0.00635072
0.00692625
0.00738314
0.00768513
0.00780289
0.00771582
0.00741329
0.00689531
0.00617266
0.00526646
0.00420725
0.00303364
0.00179071
0.000528171
-0.000701557
-0.00184529
-0.00285091
-0.00366911
-0.00425483
-0.0045686
-0.00457747
-0.00425579
-0.00358562
-0.00255697
-0.00116781
0.000576096
0.00266144
0.00506764
0.00776716
0.0107258
0.013903
0.017252
0.0207206
0.0242512
0.0277823
0.0312491
0.034585
0.0377239
0.0406019
0.0431599
0.0453461
0.0471184
0.0484466
0.0493148
0.0497223
0.0496852
0.0492361
0.048424
0.0473126
0.0459789
0.0445093
0.0429973
0.0415382
0.0402256
0.0391458
0.0383739
0.0379691
0.0379712
0.0383978
0.0392429
0.0404765
0.0420459
0.043878
0.045884
0.0479634
0.0500105
0.0519202
0.0535943
0.0549469
0.0559098
0.0564355
0.0565002
0.0561038
0.0552698
0.0540423
0.0524825
0.0506641
0.0486678
0.0465758
0.0444662
0.0424082
0.0404585
0.0386578
0.0370301
0.0355826
0.0343067
0.0331811
0.0321748
0.0312512
0.0303724
0.0295032
0.0286144
0.0276854
0.0267061
0.0256773
0.0246104
0.0235258
0.0224513
0.0214188
0.0204621
0.0196141
0.0189035
0.0183535
0.0179797
0.0177892
0.0177802
0.0179422
0.0182565
0.0186978
0.0192352
0.0198337
0.0204564
0.0210658
0.0216256
0.0221023
0.0224666
0.0226946
0.0227692
0.0226806
0.0224272
0.0220161
0.021463
0.0207923
0.0200361
0.0192341
0.0184315
0.0176775
0.0170238
0.0165212
0.016218
0.0161563
0.0163697
0.0168804
0.0176965
0.0188101
0.0201956
0.0218087
0.0235865
0.0254475
0.0272939
0.0290133
0.0304817
0.031568
0.032138
0.0320592
0.0312063
0.0294665
0.0267445
0.0229675
0.0180894
0.0120945
0.00500013
-0.00314152
-0.0122425
-0.0221795
-0.0327946
-0.0438975
-0.0552684
-0.0666609
-0.077806
-0.0884166
-0.0981926
-0.106826
-0.114005
-0.119425
-0.12279
-0.123824
-0.122277
-0.117935
-0.11063
-0.100245
-0.0867281
-0.0700961
-0.0504443
-0.0279502
-0.0028769
0.0244268
0.0535293
0.0839225
0.115031
0.146226
0.17684
0.206188
0.233585
0.258373
0.279937
0.297735
0.311313
0.320325
0.32455
0.323898
0.318415
0.308287
0.293829
0.275471
0.253743
0.22925
0.202645
0.174602
0.145788
0.116836
0.0883204
0.0607394
0.0345012
0.00991586
-0.0128062
-0.0335509
-0.0522925
-0.0690819
-0.0840323
-0.0973045
-0.109091
-0.119601
-0.129048
-0.137638
-0.145558
-0.152973
-0.16002
-0.166803
-0.173396
-0.179841
-0.186155
-0.192327
-0.19833
-0.204122
-0.209654
-0.214875
-0.219739
-0.22421
-0.228266
-0.231905
-0.235146
-0.238027
-0.240608
-0.242967
-0.245191
-0.247377
-0.249618
-0.251998
-0.254587
-0.257424
-0.260523
-0.263857
-0.267364
-0.270939
-0.274444
-0.277707
-0.280534
-0.282715
-0.284037
-0.284296
-0.283306
-0.280914
-0.277006
-0.271515
-0.264428
-0.255783
-0.245673
-0.234237
-0.221658
-0.208148
-0.193945
-0.179294
-0.164445
-0.149633
-0.135079
-0.120973
-0.107477
-0.094715
-0.0827763
-0.0717138
-0.0615469
-0.0522654
-0.0438342
-0.0361986
-0.0292897
-0.0230306
-0.0173409
-0.0121422
-0.00736144
-0.00293432
0.00119247
0.00505997
0.00869648
0.0121179
0.0153289
0.0183243
0.0210918
0.0236139
0.0258709
0.0278436
0.0295158
0.0308766
0.0319226
0.0326587
0.0330993
0.033268
0.0331973
0.0329271
0.0325031
0.0319744
0.0313913
0.0308025
0.0302528
0.0297805
0.0294159
0.02918
0.0290831
0.0291252
0.0292965
0.029578
0.0299437
0.0303624
0.0307997
0.0312211
0.0315939
0.0318899
0.0320867
0.0321699
0.0321335
0.0319802
0.0317213
0.0313756
0.0309675
0.030526
0.0300813
0.0296636
0.0293002
0.0290137
0.0288207
0.0287302
0.0287436
0.0288547
0.0290504
0.0293116
0.0296154
0.0299362
0.0302484
0.0305276
0.0307526
0.0309066
0.0309779
0.0309605
0.030854
0.0306627
0.0303953
0.0300631
0.0296794
0.0292581
0.0288127
0.0283553
0.0278964
0.0274444
0.027006
0.026586
0.0261877
0.0258139
0.0254668
0.0251483
0.0248606
0.0246061
0.0243869
0.0242054
0.024063
0.0239606
0.0238981
0.023874
0.0238855
0.0239286
0.0239982
0.0240884
0.0241929
0.0243055
0.0244205
0.0245329
0.0246386
0.0247348
0.0248201
0.0248938
0.0249565
0.0250093
0.0250541
0.0250926
0.0251268
0.0251581
0.0251877
0.0252158
0.0252422
0.0252656
0.0252835
0.0252926
0.0252885
0.0252659
0.0252184
0.0251396
0.0250227
0.0248616
0.0246515
0.0243894
0.024075
0.0237117
0.0233064
0.0228704
0.0224194
0.0219728
0.0215532
0.0211854
0.0208951
0.0207069
0.0206433
0.0207221
0.0209558
0.0213493
0.0219001
0.0225971
0.023421
0.0243454
0.0253377
0.026361
0.0273765
0.0283453
0.0292314
0.0300034
0.0306368
0.0311151
0.0314312
0.0315873
0.0315947
0.0314729
0.0312478
0.0309503
0.0306136
0.0302714
0.0299554
0.0296933
0.0295074
0.0294134
0.0294198
0.0295274
0.0297305
0.0300172
0.0303709
0.0307716
0.0311978
0.0316276
0.0320405
0.0324185
0.0327465
0.0330133
0.0332115
0.033337
0.033389
0.0333694
0.0332813
0.0331292
0.032918
0.0326523
0.0323367
0.0319755
0.031573
0.0311337
0.0306633
0.0301686
0.0296583
0.0291431
0.0286356
0.0281501
0.0277019
0.0273065
0.0269786
0.0267305
0.0265715
0.0265065
0.0265353
0.0266523
0.0268464
0.0271015
0.0273974
0.0277112
0.0280185
0.0282953
0.0285196
0.0286727
0.0287406
0.0287146
0.0285919
0.0283755
0.0280733
0.027698
0.0272653
0.0267932
0.0263004
0.025805
0.0253238
0.0248711
0.0244582
0.0240931
0.0237802
0.0235206
0.0233126
0.0231515
0.0230305
0.022941
0.0228732
0.022816
0.0227578
0.0226863
0.0225889
0.022453
0.0222661
0.0220162
0.0216921
0.0212842
0.0207852
0.02019
0.0194972
0.018709
0.0178316
0.0168754
0.0158546
0.0147871
0.0136934
0.0125959
0.0115176
0.010481
0.00950674
0.00861258
0.00781207
0.00711395
0.00652153
0.00603249
0.00563903
0.00532829
0.00508319
0.0048834
0.00470659
0.0045297
0.00433026
0.0040876
0.00378389
0.00340496
0.00294083
0.00238591
0.00173896
0.00100278
0.000183643
-0.000709322
-0.00166488
-0.00267039
-0.00371246
-0.0047775
-0.00585211
-0.00692334
-0.0079789
-0.00900722
-0.00999747
-0.0109396
-0.0118246
-0.0126442
-0.0133915
-0.0140611
-0.0146491
-0.0151538
-0.015576
-0.0159187
-0.0161879
-0.0163924
-0.0165434
-0.0166546
-0.0167416
-0.0168212
-0.0169105
-0.017026
-0.0171825
-0.0173921
-0.0176629
-0.0179982
-0.0183961
-0.0188487
-0.0193424
-0.0198585
-0.0203741
-0.020863
-0.0212981
-0.0216529
-0.0219034
-0.0220303
-0.0220203
-0.0218678
-0.0215752
-0.021153
-0.0206197
-0.0200002
-0.0193246
-0.0186256
-0.0179364
-0.0172884
-0.0167088
-0.0162187
-0.0158316
-0.0155526
-0.0153784
-0.0152973
-0.015291
-0.015336
-0.0154053
-0.0154714
-0.0155078
-0.0154918
-0.0154055
-0.0152376
-0.0149834
-0.0146456
-0.0142328
-0.0137591
-0.0132424
-0.0127024
-0.0121595
-0.0116325
-0.0111373
-0.0106863
-0.0102872
-0.00994305
-0.00965257
-0.00941064
-0.00920925
-0.00903851
-0.00888783
-0.00874695
-0.00860685
-0.00846042
-0.00830293
-0.0081321
-0.00794802
-0.00775274
-0.00754978
-0.00734348
-0.00713829
-0.00693821
-0.00674614
-0.00656351
-0.00638994
-0.00622314
-0.00605894
-0.0058915
-0.00571363
-0.00551733
-0.00529436
-0.00503694
-0.00473846
-0.00439424
-0.00400224
-0.00356364
-0.00308328
-0.00256993
-0.00203623
-0.00149834
-0.000975378
-0.00048836
-5.9026e-005
0.000291625
0.000544895
0.000685939
0.000705179
0.000599449
0.000372752
3.65309e-005
-0.000390595
-0.000883643
-0.00141259
-0.00194411
-0.00244369
-0.00287778
-0.00321606
-0.00343347
-0.00351194
-0.00344162
-0.00322161
-0.00286002
-0.00237347
-0.00178594
-0.00112722
-0.000430893
0.000267819
0.00093436
0.00153699
0.00204875
0.00244901
0.00272463
0.00287055
0.00288987
0.00279337
0.00259857
0.00232833
0.00200917
0.00166935
0.00133691
0.00103777
0.000794056
0.000622688
0.000534465
0.00053357
0.000617591
0.000778031
0.00100123
0.00126966
0.00156338
0.0018617
0.00214468
0.00239459
0.00259705
0.00274188
0.00282349
0.002841
0.00279794
0.00270166
0.00256256
0.00239317
0.00220723
0.00201878
0.00184135
0.00168736
0.00156747
0.00149023
0.00146174
0.00148528
0.00156113
0.00168626
0.00185413
0.00205454
0.00227359
0.00249382
0.00269466
0.00285315
0.00294505
0.00294632
0.00283489
0.00259271
0.00220779
0.00167632
0.00100433
0.000209017
-0.000680578
-0.00162371
-0.00256885
-0.00345545
-0.00421648
-0.00478156
-0.00508058
-0.00504739
-0.00462364
-0.00376212
-0.00242976
-0.000609895
0.00169623
0.00446886
0.0076699
0.011244
0.0151204
0.0192153
0.023435
0.0276793
0.0318451
0.0358307
0.0395388
0.0428811
0.0457809
0.0481768
0.0500246
0.0512993
0.0519962
0.0521315
0.0517415
0.0508816
0.0496244
0.048057
0.0462776
0.0443912
0.0425059
0.0407275
0.0391548
0.0378752
0.0369601
0.0364613
0.0364083
0.0368065
0.0376369
0.0388574
0.0404044
0.042197
0.0441411
0.0461352
0.0480754
0.0498619
0.0514034
0.052623
0.0534608
0.053877
0.0538533
0.0533925
0.0525174
0.0512684
0.0497001
0.0478777
0.0458722
0.0437569
0.0416026
0.0394746
0.0374293
0.0355123
0.0337568
0.0321833
0.0307998
0.0296027
0.0285789
0.0277072
0.0269611
0.0263109
0.0257261
0.0251774
0.0246383
0.0240868
0.0235058
0.0228842
0.0222166
0.0215035
0.0207508
0.0199694
0.0191744
0.0183846
0.0176214
0.0169082
0.0162692
0.0157282
0.0153081
0.0150286
0.0149061
0.0149517
0.0151704
0.0155603
0.0161117
0.0168074
0.0176225
0.0185251
0.019478
0.0204399
0.0213678
0.0222193
0.0229555
0.0235433
0.0239579
0.0241856
0.0242246
0.0240867
0.0237971
0.0233936
0.0229251
0.0224486
0.0220258
0.0217187
0.0215848
0.0216719
0.0220134
0.0226233
0.0234927
0.0245869
0.0258441
0.0271757
0.0284678
0.029585
0.0303754
0.0306773
0.0303264
0.0291645
0.027048
0.0238557
0.0194974
0.0139199
0.00711241
-0.000889656
-0.0100028
-0.0200956
-0.0309898
-0.0424639
-0.0542574
-0.0660764
-0.0775997
-0.0884861
-0.0983813
-0.106926
-0.113763
-0.118548
-0.120954
-0.120683
-0.117475
-0.111116
-0.101449
-0.0883818
-0.0718977
-0.0520623
-0.0290307
-0.00305234
0.0255268
0.0562647
0.0886277
0.121999
0.15569
0.188959
0.221028
0.25111
0.278435
0.302274
0.321971
0.336967
0.346829
0.351265
0.35014
0.343488
0.33151
0.314567
0.293167
0.267945
0.239631
0.209019
0.176934
0.144195
0.111576
0.0797838
0.0494237
0.0209866
-0.00516468
-0.0287987
-0.0498116
-0.0682168
-0.0841301
-0.0977503
-0.109338
-0.119194
-0.127637
-0.134987
-0.141545
-0.147582
-0.153331
-0.158976
-0.164654
-0.170451
-0.176411
-0.182534
-0.188787
-0.19511
-0.201425
-0.207645
-0.21368
-0.219449
-0.224882
-0.229928
-0.234558
-0.238768
-0.242578
-0.246032
-0.249189
-0.252124
-0.254917
-0.257645
-0.260376
-0.263157
-0.266011
-0.268927
-0.271861
-0.274731
-0.27742
-0.279782
-0.281646
-0.282826
-0.283132
-0.282382
-0.280412
-0.277088
-0.272314
-0.266039
-0.258263
-0.249034
-0.238452
-0.226658
-0.213831
-0.20018
-0.185929
-0.171312
-0.156558
-0.141887
-0.127496
-0.113558
-0.100218
-0.0875853
-0.0757403
-0.064732
-0.0545821
-0.0452886
-0.0368301
-0.0291703
-0.0222627
-0.0160541
-0.0104884
-0.00550935
-0.00106242
0.00290363
0.00643604
0.0095777
0.0123673
0.0148398
0.0170266
0.0189564
0.0206556
0.0221488
0.023459
0.0246076
0.0256149
0.0264998
0.0272795
0.0279697
0.0285845
0.0291358
0.0296338
0.0300865
0.0304998
0.0308776
0.0312217
0.0315321
0.0318068
0.0320421
0.0322333
0.0323745
0.0324591
0.0324808
0.0324336
0.0323128
0.0321156
0.0318413
0.0314924
0.0310744
0.030596
0.0300695
0.0295099
0.0289348
0.0283632
0.0278149
0.0273092
0.0268639
0.026494
0.0262106
0.0260204
0.0259249
0.0259203
0.0259973
0.0261421
0.0263369
0.0265609
0.0267923
0.0270091
0.0271908
0.02732
0.0273831
0.0273714
0.0272811
0.027114
0.0268763
0.0265781
0.0262328
0.025855
0.02546
0.025062
0.0246734
0.0243038
0.0239596
0.0236437
0.0233558
0.0230929
0.0228501
0.0226212
0.0224
0.0221811
0.0219607
0.0217372
0.0215115
0.0212873
0.0210706
0.0208693
0.0206926
0.02055
0.0204503
0.0204007
0.0204058
0.020467
0.0205821
0.0207448
0.0209456
0.0211715
0.0214072
0.0216362
0.0218415
0.0220074
0.02212
0.0221688
0.0221475
0.0220541
0.0218915
0.0216673
0.0213934
0.021085
0.0207596
0.0204357
0.0201317
0.0198641
0.0196467
0.019489
0.019396
0.0193676
0.0193985
0.0194792
0.0195959
0.019733
0.0198732
0.0200001
0.020099
0.0201586
0.0201721
0.0201376
0.0200582
0.0199425
0.0198031
0.0196557
0.0195182
0.0194084
0.0193432
0.0193367
0.0193994
0.019537
0.0197504
0.0200356
0.0203839
0.0207833
0.0212191
0.0216754
0.0221363
0.0225869
0.0230147
0.0234098
0.0237658
0.0240792
0.0243499
0.02458
0.0247735
0.0249357
0.025072
0.0251876
0.0252872
0.0253742
0.0254514
0.0255209
0.0255847
0.0256451
0.0257054
0.0257706
0.0258473
0.0259444
0.0260723
0.026243
0.0264689
0.0267619
0.0271322
0.0275875
0.0281314
0.0287625
0.0294745
0.030255
0.0310864
0.0319466
0.0328095
0.0336469
0.0344301
0.0351316
0.0357268
0.0361959
0.0365252
0.0367077
0.0367442
0.0366424
0.0364172
0.0360889
0.0356821
0.0352235
0.0347406
0.0342593
0.0338021
0.0333871
0.0330266
0.0327264
0.0324861
0.0322996
0.0321554
0.0320384
0.0319312
0.0318157
0.0316745
0.0314926
0.0312583
0.0309643
0.0306076
0.0301899
0.0297174
0.0291994
0.0286479
0.028076
0.027497
0.026923
0.0263637
0.0258258
0.0253125
0.0248229
0.0243522
0.0238925
0.0234328
0.0229607
0.0224629
0.0219264
0.02134
0.0206947
0.019985
0.0192091
0.0183695
0.0174725
0.0165282
0.0155497
0.0145523
0.0135524
0.0125666
0.0116106
0.0106984
0.00984118
0.00904724
0.00832134
0.00766482
0.00707579
0.00654949
0.00607894
0.00565554
0.00526983
0.00491221
0.00457352
0.00424565
0.00392188
0.00359709
0.00326788
0.00293244
0.00259033
0.00224214
0.00188914
0.00153279
0.00117443
0.000814865
0.000454147
9.14034e-005
-0.000275199
-0.000648386
-0.0010316
-0.00142875
-0.0018439
-0.00228092
-0.00274314
-0.003233
-0.00375177
-0.00429929
-0.00487384
-0.00547203
-0.00608881
-0.00671758
-0.00735039
-0.00797822
-0.00859133
-0.00917966
-0.00973328
-0.0102429
-0.0107001
-0.0110982
-0.011432
-0.0116986
-0.0118974
-0.01203
-0.0121006
-0.0121157
-0.0120839
-0.0120156
-0.0119229
-0.0118186
-0.0117161
-0.0116287
-0.0115688
-0.0115475
-0.0115738
-0.0116543
-0.0117927
-0.0119892
-0.0122409
-0.0125414
-0.0128811
-0.0132481
-0.013628
-0.0140055
-0.0143647
-0.0146904
-0.0149689
-0.0151892
-0.0153433
-0.0154273
-0.0154415
-0.0153905
-0.0152831
-0.0151315
-0.0149509
-0.0147582
-0.0145708
-0.0144057
-0.0142778
-0.0141991
-0.0141778
-0.0142174
-0.0143168
-0.01447
-0.0146668
-0.0148934
-0.0151335
-0.0153694
-0.0155833
-0.0157585
-0.0158807
-0.0159384
-0.0159242
-0.0158345
-0.0156699
-0.015435
-0.0151375
-0.014788
-0.0143988
-0.0139835
-0.013556
-0.0131299
-0.0127178
-0.0123311
-0.0119795
-0.0116708
-0.0114114
-0.0112055
-0.0110559
-0.0109638
-0.0109287
-0.0109488
-0.0110208
-0.0111399
-0.0112993
-0.011491
-0.0117047
-0.0119288
-0.0121499
-0.0123534
-0.0125237
-0.0126453
-0.012703
-0.0126829
-0.0125735
-0.012366
-0.0120554
-0.0116408
-0.011126
-0.0105193
-0.00983344
-0.00908486
-0.00829316
-0.00747989
-0.00666736
-0.00587739
-0.00512997
-0.00444213
-0.00382692
-0.00329276
-0.00284302
-0.00247602
-0.0021854
-0.00196077
-0.00178871
-0.00165389
-0.00154038
-0.00143293
-0.00131816
-0.00118556
-0.00102823
-0.000843237
-0.000631634
-0.000398138
-0.000150418
0.000101852
0.000348125
0.000578189
0.000783326
0.000957311
0.00109716
0.00120353
0.00128079
0.00133666
0.00138155
0.00142759
0.00148749
0.00157335
0.00169545
0.00186129
0.00207481
0.00233597
0.00264069
0.00298116
0.00334648
0.00372357
0.00409825
0.00445643
0.00478527
0.00507416
0.00531553
0.00550539
0.00564351
0.00573328
0.00578131
0.00579676
0.00579041
0.00577379
0.00575815
0.00575361
0.00576849
0.00580879
0.00587801
0.0059772
0.00610532
0.0062597
0.00643668
0.00663228
0.00684284
0.00706545
0.00729826
0.00754056
0.00779253
0.00805488
0.00832826
0.00861262
0.00890649
0.00920644
0.00950662
0.00979861
0.0100715
0.0103123
0.0105066
0.0106395
0.0106966
0.0106655
0.0105365
0.0103038
0.00996634
0.00952814
0.00899831
0.00839077
0.00772353
0.00701752
0.00629538
0.00557996
0.00489289
0.00425331
0.0036769
0.00317521
0.00275552
0.00242118
0.00217234
0.00200712
0.001923
0.00191836
0.00199397
0.00215427
0.00240829
0.00277019
0.00325912
0.0038986
0.0047153
0.00573721
0.00699151
0.00850201
0.0102865
0.0123544
0.0147039
0.0173208
0.020177
0.02323
0.0264239
0.0296906
0.0329525
0.0361256
0.0391237
0.0418628
0.0442654
0.0462652
0.0478109
0.0488697
0.0494289
0.049498
0.0491079
0.0483099
0.0471732
0.0457816
0.0442289
0.0426142
0.0410373
0.0395927
0.0383656
0.0374274
0.0368321
0.0366141
0.0367864
0.0373406
0.0382474
0.0394586
0.0409104
0.0425264
0.0442222
0.0459101
0.0475037
0.048922
0.050094
0.0509615
0.0514818
0.0516293
0.051396
0.0507909
0.0498388
0.0485782
0.0470585
0.045337
0.0434754
0.0415366
0.0395811
0.0376645
0.0358347
0.0341301
0.0325785
0.0311962
0.0299882
0.0289488
0.0280632
0.0273088
0.0266578
0.0260792
0.0255412
0.0250139
0.0244709
0.0238912
0.0232608
0.0225732
0.0218295
0.0210384
0.0202155
0.0193815
0.0185612
0.0177815
0.0170692
0.0164493
0.0159434
0.015568
0.0153334
0.0152429
0.0152927
0.0154717
0.0157627
0.0161428
0.0165851
0.0170599
0.0175367
0.0179857
0.0183797
0.0186954
0.0189153
0.0190282
0.0190307
0.0189269
0.0187294
0.018458
0.0181397
0.0178071
0.017497
0.0172482
0.0170998
0.0170883
0.0172451
0.0175942
0.0181495
0.0189129
0.0198719
0.0209985
0.0222487
0.0235617
0.0248611
0.026056
0.0270437
0.0277122
0.0279443
0.027622
0.0266311
0.0248663
0.0222359
0.0186673
0.0141107
0.00854354
0.00197303
-0.00556121
-0.0139859
-0.0231937
-0.0330435
-0.0433615
-0.0539434
-0.0645562
-0.0749417
-0.0848199
-0.0938929
-0.10185
-0.108371
-0.113139
-0.115837
-0.116168
-0.113856
-0.108661
-0.100387
-0.0888971
-0.0741221
-0.0560728
-0.0348491
-0.010647
0.016237
0.0454048
0.0763599
0.108515
0.141206
0.173706
0.205246
0.235045
0.26233
0.286368
0.306496
0.322144
0.332863
0.338345
0.338436
0.333146
0.322649
0.30728
0.287514
0.263953
0.237293
0.208297
0.177758
0.146465
0.11517
0.0845594
0.0552255
0.0276521
0.00220071
-0.0208923
-0.0415135
-0.0596627
-0.075439
-0.0890228
-0.100656
-0.110622
-0.119225
-0.126771
-0.133552
-0.139835
-0.145849
-0.151782
-0.157772
-0.163914
-0.170255
-0.176798
-0.183514
-0.190341
-0.197196
-0.203981
-0.210596
-0.216938
-0.222918
-0.228463
-0.233523
-0.238071
-0.24211
-0.24567
-0.248805
-0.251588
-0.254105
-0.256446
-0.258697
-0.26093
-0.263193
-0.265504
-0.267844
-0.270157
-0.272347
-0.27428
-0.275796
-0.276712
-0.276833
-0.275971
-0.273947
-0.270614
-0.265859
-0.259616
-0.251871
-0.242662
-0.232081
-0.220267
-0.207399
-0.193691
-0.179376
-0.164697
-0.149896
-0.135203
-0.12083
-0.106959
-0.0937407
-0.0812932
-0.0696983
-0.0590048
-0.0492316
-0.0403714
-0.0323955
-0.0252593
-0.0189069
-0.0132756
-0.00830015
-0.00391526
-5.82466e-005
0.00332972
0.00630281
0.00891037
0.0111971
0.0132033
0.0149656
0.016517
0.0178872
0.0191027
0.0201865
0.0211577
0.0220315
0.0228187
0.0235258
0.0241547
0.0247038
0.0251682
0.0255408
0.025814
0.0259806
0.0260358
0.0259777
0.0258091
0.0255381
0.0251776
0.0247462
0.0242663
0.0237639
0.0232664
0.0228013
0.0223942
0.022067
0.021837
0.0217153
0.0217061
0.0218074
0.0220101
0.0223
0.0226583
0.023063
0.0234907
0.0239184
0.0243242
0.0246893
0.0249986
0.0252413
0.0254115
0.0255078
0.0255327
0.0254926
0.0253961
0.0252532
0.0250746
0.02487
0.0246479
0.0244144
0.0241732
0.0239254
0.02367
0.0234039
0.0231232
0.0228238
0.0225026
0.0221579
0.0217905
0.0214038
0.0210044
0.0206015
0.0202067
0.0198332
0.0194949
0.0192053
0.0189764
0.0188178
0.018736
0.0187335
0.0188091
0.0189571
0.0191683
0.0194303
0.0197283
0.0200459
0.0203662
0.0206728
0.0209505
0.0211859
0.0213682
0.0214895
0.0215446
0.0215315
0.0214508
0.0213054
0.0211004
0.0208426
0.0205396
0.0202003
0.0198335
0.0194482
0.0190533
0.018657
0.0182671
0.0178904
0.0175331
0.0172005
0.0168969
0.0166258
0.0163896
0.0161896
0.0160261
0.0158979
0.0158029
0.0157376
0.0156972
0.0156762
0.0156686
0.0156677
0.0156677
0.0156633
0.0156507
0.0156279
0.0155953
0.0155557
0.015514
0.0154773
0.0154544
0.0154545
0.0154871
0.0155602
0.0156804
0.0158514
0.0160735
0.0163439
0.016656
0.0170005
0.0173654
0.0177376
0.0181036
0.0184508
0.0187686
0.0190498
0.0192907
0.0194925
0.0196606
0.0198048
0.0199387
0.0200784
0.020242
0.0204475
0.0207117
0.0210487
0.0214691
0.0219784
0.0225767
0.0232588
0.0240137
0.0248258
0.0256756
0.0265411
0.0273991
0.0282265
0.0290027
0.0297097
0.0303345
0.0308687
0.0313099
0.0316613
0.0319309
0.0321314
0.0322786
0.0323905
0.0324852
0.0325799
0.0326896
0.0328256
0.0329948
0.0331994
0.0334368
0.0336997
0.033977
0.0342547
0.0345174
0.0347489
0.0349342
0.0350598
0.0351155
0.0350944
0.0349937
0.0348144
0.0345617
0.0342441
0.0338732
0.0334629
0.0330284
0.0325858
0.0321512
0.0317397
0.0313651
0.031039
0.0307705
0.0305659
0.0304282
0.0303571
0.0303492
0.0303976
0.0304925
0.0306215
0.0307696
0.0309202
0.0310552
0.0311558
0.0312031
0.0311791
0.031067
0.0308523
0.0305233
0.030072
0.0294945
0.0287914
0.0279679
0.0270341
0.0260042
0.0248969
0.0237337
0.0225392
0.0213389
0.0201594
0.0190262
0.0179633
0.016992
0.0161299
0.0153905
0.0147824
0.0143091
0.0139694
0.0137569
0.0136611
0.0136677
0.0137592
0.013916
0.0141172
0.0143412
0.0145667
0.0147733
0.014942
0.0150561
0.0151014
0.0150663
0.0149423
0.0147243
0.0144102
0.014001
0.0135009
0.012917
0.012259
0.0115389
0.0107707
0.00996983
0.00915306
0.00833765
0.007541
0.00678007
0.00607086
0.00542779
0.00486312
0.00438633
0.00400352
0.00371684
0.00352396
0.00341768
0.00338574
0.00341086
0.00347107
0.00354038
0.00358982
0.00358882
0.00350681
0.00331506
0.00298859
0.00250791
0.00186068
0.00104289
5.96572e-005
-0.00107461
-0.0023366
-0.00369503
-0.00511223
-0.00654603
-0.00795204
-0.00928606
-0.0105065
-0.0115765
-0.0124661
-0.0131535
-0.0136264
-0.013882
-0.0139274
-0.0137783
-0.0134585
-0.0129977
-0.0124299
-0.0117912
-0.0111174
-0.0104425
-0.00979631
-0.00920341
-0.00868208
-0.008244
-0.00789441
-0.00763289
-0.00745454
-0.00735153
-0.00731484
-0.00733594
-0.00740829
-0.00752855
-0.00769718
-0.00791861
-0.00820071
-0.00855381
-0.00898921
-0.0095175
-0.0101467
-0.0108806
-0.0117172
-0.012648
-0.0136575
-0.0147233
-0.0158174
-0.0169073
-0.0179584
-0.0189356
-0.0198061
-0.0205416
-0.0211199
-0.0215264
-0.0217551
-0.0218087
-0.0216983
-0.021442
-0.0210639
-0.0205915
-0.0200544
-0.0194818
-0.0189004
-0.0183333
-0.0177984
-0.017308
-0.0168687
-0.0164819
-0.0161447
-0.0158513
-0.0155942
-0.0153659
-0.0151602
-0.014973
-0.0148032
-0.0146523
-0.0145247
-0.0144262
-0.0143634
-0.0143422
-0.0143663
-0.0144362
-0.0145484
-0.0146946
-0.014862
-0.0150337
-0.0151898
-0.0153088
-0.015369
-0.0153508
-0.0152377
-0.0150186
-0.0146879
-0.0142471
-0.0137041
-0.0130732
-0.0123742
-0.011631
-0.0108699
-0.0101183
-0.00940241
-0.00874633
-0.00817024
-0.00768963
-0.00731462
-0.00704978
-0.00689425
-0.0068422
-0.0068836
-0.00700506
-0.0071908
-0.00742356
-0.00768553
-0.007959
-0.00822691
-0.00847325
-0.00868325
-0.00884342
-0.00894156
-0.00896669
-0.00890897
-0.00875978
-0.00851173
-0.00815893
-0.00769724
-0.00712472
-0.00644201
-0.00565283
-0.00476435
-0.00378752
-0.0027372
-0.00163208
-0.000494422
0.000650532
0.00177536
0.00285149
0.00385048
0.00474538
0.00551222
0.00613143
0.00658919
0.00687851
0.00700009
0.00696265
0.00678292
0.00648502
0.00609942
0.00566136
0.00520896
0.00478099
0.00441457
0.00414288
0.00399307
0.00398454
0.00412772
0.0044234
0.00486278
0.00542807
0.00609373
0.00682821
0.00759603
0.00836002
0.00908365
0.00973307
0.010279
0.0106982
0.0109743
0.0110981
0.0110678
0.0108884
0.0105706
0.0101303
0.00958664
0.00896173
0.00827892
0.00756225
0.0068357
0.00612287
0.0054468
0.00483008
0.00429506
0.00386419
0.00356037
0.00340722
0.00342923
0.00365169
0.0041003
0.00480046
0.00577619
0.00704867
0.00863447
0.0105435
0.012777
0.0153252
0.018166
0.0212633
0.0245667
0.0280116
0.0315209
0.0350071
0.0383759
0.0415306
0.0443768
0.0468282
0.0488114
0.0502715
0.0511754
0.0515156
0.051311
0.0506075
0.0494757
0.048008
0.0463131
0.044511
0.0427251
0.041076
0.0396736
0.0386114
0.0379606
0.0377658
0.0380431
0.0387789
0.0399315
0.0414336
0.043197
0.0451185
0.0470861
0.0489863
0.050711
0.0521637
0.0532655
0.0539589
0.0542112
0.0540152
0.0533889
0.0523735
0.0510301
0.0494346
0.0476726
0.0458331
0.0440033
0.0422624
0.0406769
0.0392972
0.0381544
0.0372598
0.0366045
0.0361614
0.0358879
0.0357297
0.0356252
0.035511
0.0353263
0.0350183
0.034546
0.0338833
0.0330216
0.0319702
0.0307558
0.0294205
0.028019
0.026614
0.0252722
0.0240585
0.0230315
0.0222392
0.0217149
0.0214749
0.0215174
0.0218222
0.0223523
0.0230567
0.0238738
0.0247359
0.0255738
0.0263215
0.0269209
0.0273249
0.027501
0.0274324
0.0271191
0.0265774
0.0258383
0.0249453
0.0239513
0.0229155
0.0218997
0.0209647
0.0201678
0.0195596
0.0191822
0.0190677
0.0192373
0.019701
0.0204575
0.0214949
0.0227903
0.0243112
0.0260153
0.0278505
0.0297557
0.0316599
0.0334825
0.0351337
0.0365143
0.0375173
0.038029
0.0379317
0.0371071
0.0354402
0.0328247
0.0291684
0.0243991
0.018471
0.0113695
0.00311696
-0.00622421
-0.0165487
-0.0277078
-0.0395097
-0.0517227
-0.0640786
-0.0762787
-0.088
-0.0989031
-0.10864
-0.116864
-0.123237
-0.127439
-0.129179
-0.1282
-0.12429
-0.117293
-0.10711
-0.0937114
-0.0771411
-0.0575212
-0.0350551
-0.0100291
0.0171888
0.0461529
0.0763457
0.107188
0.138051
0.168271
0.197171
0.224075
0.248334
0.269347
0.286584
0.299604
0.308074
0.311787
0.310668
0.304781
0.294327
0.279637
0.261159
0.239436
0.215089
0.188781
0.161195
0.133001
0.104831
0.0772521
0.0507516
0.02572
0.00244484
-0.0188905
-0.0382022
-0.0554969
-0.0708582
-0.0844312
-0.0964055
-0.106998
-0.116438
-0.124952
-0.132752
-0.140027
-0.146936
-0.153606
-0.160128
-0.16656
-0.172929
-0.179232
-0.185444
-0.191523
-0.197414
-0.203056
-0.208386
-0.213349
-0.217898
-0.222004
-0.225652
-0.228852
-0.231633
-0.234045
-0.236157
-0.238052
-0.239822
-0.241563
-0.243363
-0.2453
-0.247428
-0.249777
-0.252341
-0.255079
-0.257909
-0.260714
-0.263343
-0.265616
-0.267336
-0.268296
-0.268294
-0.267141
-0.264678
-0.260781
-0.255372
-0.248425
-0.239969
-0.230086
-0.218908
-0.206611
-0.193409
-0.179537
-0.165245
-0.150786
-0.136402
-0.122316
-0.108725
-0.095791
-0.0836392
-0.0723563
-0.0619903
-0.0525535
-0.0440263
-0.0363625
-0.0294949
-0.0233416
-0.0178124
-0.0128148
-0.00825902
-0.00406288
-0.000155226
0.00352138
0.00700924
0.0103351
0.0135107
0.0165344
0.0193934
0.0220668
0.0245286
0.0267511
0.0287084
0.0303792
0.0317492
0.032813
0.0335752
0.0340504
0.0342628
0.0342449
0.0340359
0.0336788
0.0332186
0.0326993
0.0321618
0.0316415
0.0311668
0.0307582
0.0304276
0.0301786
0.0300073
0.0299031
0.0298508
0.029832
0.029827
0.0298167
0.0297839
0.0297147
0.0295997
0.0294337
0.0292165
0.0289523
0.0286491
0.0283177
0.0279708
0.0276219
0.0272839
0.0269684
0.0266848
0.0264394
0.026236
0.0260749
0.0259544
0.0258705
0.0258187
0.0257944
0.025794
0.025816
0.0258612
0.025933
0.0260371
0.0261806
0.0263709
0.0266141
0.0269137
0.0272683
0.0276709
0.028108
0.0285589
0.0289966
0.0293892
0.0297015
0.0298977
0.0299443
0.0298132
0.0294841
0.0289476
0.0282062
0.0272755
0.0261837
0.0249708
0.023686
0.022385
0.0211261
0.0199666
0.0189584
0.018145
0.0175577
0.0172141
0.0171166
0.0172522
0.0175939
0.0181027
0.0187301
0.0194222
0.0201228
0.0207776
0.0213373
0.0217608
0.0220171
0.0220871
0.0219638
0.021652
0.021168
0.0205369
0.0197917
0.0189707
0.0181148
0.017266
0.0164647
0.0157482
0.0151488
0.0146928
0.0143997
0.014281
0.0143403
0.0145731
0.0149674
0.0155039
0.0161569
0.0168962
0.0176877
0.0184955
0.0192837
0.0200183
0.0206686
0.0212091
0.0216209
0.0218925
0.0220203
0.0220092
0.0218719
0.0216285
0.0213051
0.0209324
0.0205438
0.0201739
0.0198559
0.01962
0.0194912
0.0194883
0.0196218
0.0198944
0.0202994
0.0208225
0.0214415
0.0221287
0.0228523
0.0235787
0.0242748
0.0249107
0.025461
0.0259076
0.0262403
0.0264575
0.0265667
0.026583
0.0265288
0.0264311
0.0263198
0.026225
0.0261745
0.0261916
0.0262928
0.0264864
0.026772
0.0271399
0.0275718
0.0280425
0.0285218
0.0289766
0.029374
0.029684
0.0298818
0.0299496
0.0298785
0.0296684
0.0293282
0.0288745
0.0283303
0.0277226
0.0270802
0.0264317
0.025803
0.025216
0.0246873
0.0242279
0.0238431
0.0235334
0.0232955
0.0231234
0.0230101
0.0229489
0.0229341
0.0229619
0.0230308
0.0231409
0.0232937
0.0234912
0.0237347
0.0240237
0.0243553
0.0247229
0.0251164
0.0255216
0.0259211
0.0262946
0.0266204
0.0268763
0.0270413
0.027097
0.0270288
0.0268272
0.0264887
0.026016
0.0254187
0.0247123
0.0239179
0.0230612
0.0221707
0.0212768
0.0204093
0.0195963
0.0188622
0.0182262
0.0177016
0.0172947
0.0170048
0.0168245
0.0167401
0.016733
0.0167809
0.0168594
0.0169437
0.01701
0.0170368
0.0170059
0.0169029
0.0167178
0.0164444
0.01608
0.0156253
0.0150827
0.0144565
0.0137518
0.0129739
0.0121286
0.0112218
0.0102598
0.00924928
0.00819818
0.00711534
0.00601082
0.00489571
0.00378172
0.00268061
0.00160348
0.000559927
-0.000442641
-0.00139961
-0.00230949
-0.00317391
-0.00399729
-0.00478617
-0.00554832
-0.00629157
-0.00702272
-0.00774642
-0.00846431
-0.00917444
-0.00987104
-0.0105448
-0.0111833
-0.0117721
-0.012296
-0.01274
-0.0130912
-0.0133397
-0.0134795
-0.0135098
-0.0134352
-0.0132656
-0.0130161
-0.012706
-0.0123582
-0.0119973
-0.0116486
-0.0113366
-0.0110829
-0.0109055
-0.0108174
-0.0108259
-0.0109328
-0.0111337
-0.0114194
-0.0117764
-0.0121882
-0.0126365
-0.0131023
-0.0135674
-0.014015
-0.0144304
-0.0148014
-0.0151183
-0.0153739
-0.0155631
-0.0156829
-0.0157322
-0.0157114
-0.0156224
-0.015469
-0.0152561
-0.0149906
-0.0146806
-0.0143358
-0.0139667
-0.0135848
-0.0132016
-0.0128285
-0.0124764
-0.0121546
-0.0118713
-0.0116324
-0.0114419
-0.0113013
-0.0112096
-0.0111636
-0.0111575
-0.0111835
-0.0112316
-0.0112904
-0.0113469
-0.0113874
-0.0113978
-0.0113645
-0.0112747
-0.0111175
-0.0108841
-0.0105689
-0.0101699
-0.00968892
-0.00913206
-0.00850957
-0.0078357
-0.00712818
-0.00640755
-0.00569626
-0.0050176
-0.00439447
-0.00384818
-0.00339718
-0.00305602
-0.00283438
-0.00273649
-0.00276077
-0.00289993
-0.00314143
-0.00346818
-0.00385968
-0.00429325
-0.00474536
-0.00519299
-0.00561481
-0.00599225
-0.0063102
-0.00655752
-0.0067272
-0.00681631
-0.00682566
-0.00675938
-0.00662424
-0.00642907
-0.00618399
-0.00589975
-0.00558707
-0.00525606
-0.00491567
-0.00457334
-0.00423463
-0.00390307
-0.00358012
-0.00326527
-0.00295636
-0.00264993
-0.00234182
-0.00202785
-0.00170442
-0.00136928
-0.00102198
-0.000664313
-0.000300432
6.33003e-005
0.000418735
0.000756638
0.0010676
0.00134305
0.00157631
0.00176349
0.00190421
0.00200191
0.00206383
0.00210059
0.00212538
0.00215282
0.00219768
0.00227355
0.00239156
0.00255941
0.00278062
0.00305432
0.00337533
0.0037348
0.00412106
0.00452081
0.00492045
0.00530733
0.00567093
0.00600376
0.00630195
0.00656538
0.00679751
0.00700474
0.00719557
0.0073795
0.00756584
0.00776259
0.00797543
0.00820699
0.00845634
0.00871888
0.0089865
0.00924805
0.00948998
0.00969726
0.00985425
0.00994563
0.00995735
0.00987737
0.00969637
0.00940827
0.00901067
0.00850512
0.00789728
0.00719705
0.00641855
0.00558
0.0047036
0.00381521
0.00294394
0.00212155
0.00138175
0.000759251
0.000288766
3.81162e-006
-6.44751e-005
0.00011148
0.000554602
0.00128223
0.00230542
0.0036284
0.00524837
0.00715548
0.00933293
0.0117573
0.0143992
0.0172233
0.0201896
0.0232535
0.026367
0.0294796
0.0325391
0.0354931
0.0382903
0.0408819
0.0432234
0.0452764
0.0470097
0.0484014
0.0494402
0.050126
0.0504708
0.0504991
0.0502467
0.0497604
0.0490961
0.0483162
0.0474871
0.046676
0.0459472
0.0453586
0.0449587
0.0447833
0.0448537
0.0451751
0.045736
0.0465094
0.0474541
0.0485172
0.0496375
0.0507493
0.051786
0.0526843
0.0533874
0.0538482
0.0540318
0.0539163
0.0534938
0.0527704
0.0517644
0.0505053
0.0490313
0.0473867
0.0456194
0.0437785
0.0419112
0.0400615
0.0382682
0.0365637
0.0349736
0.0335161
0.0322025
0.0310378
0.0300211
0.0291466
0.0284047
0.0277823
0.0272642
0.0268336
0.0264723
0.0261619
0.0258838
0.0256202
0.0253543
0.0250716
0.0247599
0.0244106
0.0240192
0.0235855
0.0231145
0.0226154
0.022102
0.0215914
0.0211029
0.0206562
0.0202701
0.0199605
0.0197388
0.0196105
0.0195743
0.019622
0.0197383
0.0199022
0.0200886
0.0202699
0.0204191
0.0205121
0.0205305
0.0204637
0.0203111
0.020083
0.0198013
0.0194983
0.0192159
0.0190027
0.0189105
0.0189911
0.019291
0.0198478
0.0206849
0.0218083
0.0232028
0.0248297
0.0266257
0.0285029
0.0303505
0.0320376
0.0334175
0.0343333
0.0346243
0.0341337
0.0327156
0.0302432
0.0266157
0.0217649
0.0156604
0.00831396
-0.00021863
-0.00983639
-0.0203941
-0.0317047
-0.0435426
-0.0556489
-0.0677365
-0.0794958
-0.0906017
-0.10072
-0.109512
-0.116645
-0.121796
-0.124659
-0.124954
-0.122433
-0.11689
-0.108166
-0.0961649
-0.0808544
-0.062279
-0.0405657
-0.01593
0.0113216
0.0407904
0.071989
0.104348
0.137228
0.169932
0.201725
0.23186
0.259595
0.284225
0.305106
0.32168
0.333501
0.34025
0.341756
0.337999
0.329119
0.315406
0.297291
0.275328
0.250165
0.222521
0.193149
0.162803
0.13221
0.102032
0.0728502
0.0451407
0.0192654
-0.00453268
-0.026127
-0.0454982
-0.0627205
-0.0779435
-0.091373
-0.103251
-0.113834
-0.123379
-0.132125
-0.140285
-0.148035
-0.155508
-0.162797
-0.169956
-0.176997
-0.183906
-0.190642
-0.197146
-0.203352
-0.209193
-0.214608
-0.219547
-0.223982
-0.227902
-0.231326
-0.234293
-0.236871
-0.239146
-0.241222
-0.243215
-0.245242
-0.247416
-0.249835
-0.252575
-0.25568
-0.259158
-0.262975
-0.267051
-0.271264
-0.275452
-0.279419
-0.282941
-0.285784
-0.287711
-0.288494
-0.287932
-0.285859
-0.282156
-0.276758
-0.269657
-0.260907
-0.250615
-0.238945
-0.226099
-0.212316
-0.197853
-0.182977
-0.16795
-0.153019
-0.138407
-0.124304
-0.110862
-0.0981957
-0.0863776
-0.0754442
-0.0653985
-0.0562155
-0.0478485
-0.0402357
-0.0333066
-0.0269876
-0.0212073
-0.0159
-0.0110088
-0.00648697
-0.00229857
0.00158196
0.00517098
0.00847722
0.0115037
0.01425
0.016714
0.0188937
0.0207889
0.0224026
0.0237412
0.0248158
0.0256418
0.0262392
0.0266318
0.0268467
0.0269139
0.0268647
0.026731
0.0265442
0.0263342
0.0261282
0.0259499
0.0258188
0.0257496
0.025752
0.0258302
0.0259837
0.0262069
0.0264902
0.0268207
0.0271826
0.0275587
0.0279313
0.0282831
0.0285982
0.028863
0.0290669
0.0292027
0.029267
0.02926
0.0291856
0.0290508
0.0288653
0.0286404
0.0283885
0.0281221
0.0278529
0.027591
0.0273442
0.0271177
0.0269138
0.026732
0.0265692
0.0264203
0.0262788
0.0261379
0.025991
0.0258327
0.0256594
0.0254698
0.025265
0.0250486
0.0248263
0.0246051
0.0243932
0.0241987
0.024029
0.0238898
0.023785
0.0237157
0.0236808
0.0236765
0.0236969
0.0237346
0.0237817
0.0238301
0.0238727
0.0239037
0.0239198
0.02392
0.0239055
0.0238802
0.0238497
0.0238206
0.0237999
0.023794
0.0238077
0.0238436
0.0239016
0.023978
0.0240664
0.0241573
0.024239
0.0242985
0.0243226
0.0242991
0.0242179
0.0240721
0.023859
0.0235804
0.0232432
0.0228587
0.0224425
0.0220132
0.0215913
0.0211977
0.0208524
0.0205726
0.0203721
0.0202594
0.0202381
0.0203059
0.0204556
0.0206752
0.0209496
0.0212617
0.0215936
0.0219288
0.0222529
0.022555
0.0228279
0.0230691
0.0232798
0.0234649
0.0236315
0.0237884
0.0239443
0.0241065
0.0242805
0.0244683
0.0246689
0.0248772
0.0250855
0.0252833
0.0254592
0.0256016
0.0257006
0.025749
0.0257436
0.0256861
0.0255835
0.0254482
0.025297
0.0251509
0.0250328
0.0249666
0.0249749
0.0250776
0.0252899
0.0256211
0.0260737
0.0266429
0.0273167
0.0280767
0.0288985
0.0297542
0.0306133
0.031445
0.0322203
0.0329132
0.0335031
0.0339752
0.0343216
0.0345412
0.0346396
0.034628
0.0345221
0.0343407
0.0341036
0.0338303
0.0335386
0.0332429
0.0329542
0.0326788
0.0324191
0.032174
0.0319395
0.0317102
0.0314803
0.0312451
0.0310018
0.0307502
0.0304937
0.0302387
0.0299946
0.0297731
0.0295869
0.0294486
0.0293696
0.0293586
0.0294204
0.0295554
0.029759
0.0300213
0.0303274
0.0306585
0.0309926
0.0313057
0.0315737
0.0317736
0.0318849
0.0318914
0.0317814
0.0315491
0.0311944
0.0307232
0.0301467
0.0294805
0.0287436
0.0279575
0.0271444
0.0263262
0.0255231
0.024753
0.02403
0.0233643
0.0227619
0.0222241
0.0217484
0.0213281
0.0209536
0.0206128
0.0202919
0.0199767
0.0196531
0.0193079
0.0189302
0.0185111
0.0180447
0.0175283
0.016962
0.0163487
0.0156937
0.0150041
0.0142881
0.0135541
0.0128102
0.0120637
0.0113202
0.0105832
0.00985476
0.00913466
0.00842125
0.00771175
0.0070028
0.00629105
0.00557373
0.00484909
0.00411664
0.00337725
0.00263304
0.00188705
0.00114283
0.00040396
-0.000326478
-0.0010463
-0.00175455
-0.00245161
-0.00313918
-0.00382007
-0.00449788
-0.0051766
-0.00586013
-0.00655189
-0.00725449
-0.00796946
-0.00869714
-0.0094367
-0.0101862
-0.0109427
-0.0117027
-0.0124621
-0.0132166
-0.0139618
-0.0146934
-0.0154074
-0.0160999
-0.0167673
-0.0174066
-0.0180146
-0.0185888
-0.0191268
-0.0196265
-0.0200863
-0.0205049
-0.0208818
-0.0212169
-0.0215112
-0.0217664
-0.0219852
-0.0221715
-0.0223297
-0.0224654
-0.0225844
-0.0226928
-0.0227963
-0.0228999
-0.0230073
-0.0231204
-0.0232389
-0.0233602
-0.0234791
-0.0235879
-0.0236771
-0.0237353
-0.0237503
-0.02371
-0.0236032
-0.0234205
-0.0231556
-0.0228054
-0.0223709
-0.0218574
-0.0212741
-0.0206339
-0.0199524
-0.019247
-0.0185354
-0.0178349
-0.0171607
-0.0165252
-0.0159374
-0.0154021
-0.0149205
-0.0144902
-0.0141063
-0.0137621
-0.0134501
-0.0131635
-0.0128971
-0.0126476
-0.0124144
-0.0121996
-0.0120071
-0.0118425
-0.0117117
-0.01162
-0.0115709
-0.0115651
-0.0116001
-0.0116696
-0.0117634
-0.0118685
-0.0119694
-0.0120492
-0.0120914
-0.0120805
-0.0120033
-0.0118503
-0.0116157
-0.011298
-0.0108996
-0.0104266
-0.00988787
-0.00929439
-0.00865803
-0.0079908
-0.00730408
-0.006608
-0.00591118
-0.00522067
-0.00454206
-0.00387988
-0.00323803
-0.00262029
-0.00203072
-0.00147408
-0.000955941
-0.000482725
-6.15012e-005
0.000300406
0.000595954
0.000819027
0.000965133
0.00103208
0.00102055
0.000934565
0.000781685
0.000573022
0.000322953
4.85847e-005
-0.000231028
-0.000495856
-0.000726004
-0.000902866
-0.00101025
-0.00103539
-0.000969721
-0.000809472
-0.000555855
-0.000214993
0.000202496
0.000682207
0.00120688
0.00175754
0.00231464
0.00285931
0.00337445
0.00384572
0.00426226
0.00461721
0.00490793
0.00513594
0.00530658
0.00542848
0.00551283
0.00557249
0.00562113
0.0056723
0.00573859
0.0058309
0.00595787
0.0061255
0.00633695
0.00659257
0.00689004
0.00722477
0.00759037
0.00797916
0.00838275
0.00879264
0.00920063
0.00959924
0.00998196
0.0103434
0.0106792
0.0109861
0.0112618
0.0115046
0.0117134
0.0118876
0.012027
0.0121318
0.0122024
0.01224
0.0122458
0.0122218
0.0121702
0.0120934
0.0119935
0.0118725
0.0117315
0.0115704
0.0113876
0.0111797
0.0109417
0.0106669
0.0103472
0.00997391
0.00953858
0.00903397
0.00845524
0.00780119
0.00707531
0.00628674
0.00545086
0.00458957
0.00373112
0.0029094
0.00216301
0.00153372
0.00106486
0.000799424
0.000778181
0.00103781
0.00160921
0.00251606
0.00377359
0.00538772
0.00735441
0.00965938
0.012278
0.0151754
0.0183073
0.0216203
0.025053
0.0285376
0.0320018
0.0353701
0.0385671
0.0415197
0.0441603
0.0464291
0.0482779
0.0496716
0.0505911
0.0510345
0.0510174
0.0505737
0.0497538
0.0486233
0.04726
0.0457508
0.0441875
0.0426628
0.0412659
0.040078
0.0391684
0.0385911
0.0383818
0.0385565
0.0391102
0.0400177
0.0412348
0.0427005
0.0443409
0.0460731
0.0478095
0.049463
0.0509514
0.0522017
0.053154
0.053764
0.054005
0.0538683
0.0533634
0.0525158
0.0513656
0.049964
0.0483697
0.0466456
0.0448549
0.0430571
0.0413055
0.0396441
0.0381057
0.036711
0.0354682
0.0343735
0.033412
0.0325603
0.0317885
0.0310631
0.0303502
0.0296181
0.0288404
0.0279979
0.0270805
0.0260878
0.0250296
0.0239252
0.0228018
0.021693
0.0206358
0.0196684
0.0188273
0.0181446
0.0176457
0.0173476
0.0172578
0.0173731
0.0176806
0.0181575
0.0187733
0.019491
0.0202692
0.0210647
0.0218345
0.0225382
0.0231395
0.0236087
0.0239232
0.0240687
0.0240399
0.0238405
0.0234829
0.0229879
0.0223838
0.0217054
0.020993
0.0202903
0.0196434
0.0190986
0.0186999
0.018487
0.0184925
0.0187394
0.0192381
0.0199845
0.0209571
0.0221161
0.0234024
0.0247372
0.0260236
0.0271486
0.027986
0.0284009
0.0282549
0.027412
0.0257446
0.0231406
0.019509
0.0147865
0.00894223
0.00198182
-0.00604955
-0.0150657
-0.0249392
-0.0355024
-0.0465497
-0.0578409
-0.0691052
-0.080046
-0.0903463
-0.0996748
-0.107692
-0.114057
-0.118435
-0.120505
-0.11997
-0.116565
-0.110068
-0.100308
-0.0871817
-0.0706572
-0.0507884
-0.0277209
-0.00169896
0.0269317
0.0577244
0.0901356
0.123534
0.157216
0.190419
0.222348
0.252202
0.279195
0.302594
0.321743
0.33609
0.345216
0.34885
0.346885
0.339386
0.326588
0.308889
0.286831
0.261078
0.232388
0.201575
0.169476
0.136914
0.10466
0.073405
0.0437371
0.0161199
-0.00911461
-0.0317689
-0.0517743
-0.0691788
-0.0841305
-0.0968567
-0.107642
-0.116804
-0.124676
-0.13158
-0.13782
-0.14366
-0.14932
-0.154973
-0.160736
-0.166677
-0.17282
-0.179146
-0.185606
-0.192124
-0.198612
-0.204974
-0.211119
-0.216963
-0.22244
-0.227505
-0.232137
-0.23634
-0.240143
-0.243596
-0.246768
-0.249737
-0.252587
-0.255394
-0.258227
-0.261129
-0.264117
-0.267178
-0.270259
-0.273272
-0.276094
-0.278573
-0.280532
-0.281782
-0.282131
-0.281398
-0.27942
-0.276066
-0.271249
-0.264925
-0.257105
-0.24785
-0.237271
-0.225523
-0.212798
-0.199314
-0.185304
-0.171007
-0.156655
-0.142463
-0.128623
-0.115298
-0.102617
-0.090673
-0.0795265
-0.0692057
-0.059711
-0.05102
-0.0430927
-0.0358765
-0.0293119
-0.0233366
-0.0178895
-0.0129137
-0.00835815
-0.00417967
-0.000342865
0.00317976
0.00640848
0.00935735
0.0120355
0.0144485
0.0165999
0.0184926
0.02013
0.0215172
0.0226616
0.0235737
0.0242674
0.0247594
0.0250697
0.0252207
0.0252365
0.0251424
0.0249637
0.0247253
0.0244507
0.0241616
0.0238771
0.0236134
0.0233839
0.0231988
0.0230652
0.0229872
0.0229661
0.0230006
0.0230868
0.0232188
0.0233888
0.0235872
0.0238034
0.0240257
0.0242424
0.0244416
0.0246124
0.0247452
0.0248321
0.0248677
0.024849
0.0247759
0.0246514
0.0244808
0.0242718
0.0240337
0.0237768
0.0235114
0.0232475
0.0229934
0.0227554
0.0225376
0.0223413
0.0221653
0.0220061
0.0218587
0.0217168
0.0215736
0.0214227
0.0212584
0.0210764
0.0208737
0.020649
0.0204023
0.0201349
0.0198488
0.0195468
0.0192316
0.018906
0.0185724
0.0182329
0.0178891
0.0175424
0.0171938
0.0168446
0.0164958
0.0161491
0.0158063
0.0154696
0.0151418
0.014826
0.0145256
0.014244
0.0139847
0.0137509
0.0135454
0.0133701
0.0132265
0.0131152
0.0130359
0.0129876
0.0129687
0.012977
0.0130102
0.013066
0.0131423
0.0132374
0.0133505
0.0134811
0.0136295
0.0137966
0.0139835
0.0141912
0.0144203
0.0146708
0.0149418
0.0152312
0.0155356
0.0158508
0.0161719
0.0164934
0.0168102
0.017118
0.0174139
0.0176968
0.0179678
0.0182302
0.0184898
0.0187541
0.019032
0.0193329
0.0196658
0.0200385
0.0204562
0.0209212
0.021432
0.0219832
0.0225654
0.0231656
0.0237683
0.0243562
0.0249113
0.0254168
0.0258581
0.0262242
0.0265083
0.0267091
0.0268302
0.0268808
0.0268746
0.0268291
0.0267643
0.0267013
0.026661
0.0266626
0.0267226
0.0268531
0.0270619
0.0273517
0.02772
0.0281598
0.0286598
0.0292056
0.0297804
0.0303665
0.0309457
0.0315012
0.0320178
0.0324831
0.0328874
0.0332247
0.0334921
0.0336901
0.0338222
0.033894
0.0339133
0.0338892
0.0338314
0.0337494
0.0336525
0.0335489
0.0334452
0.0333464
0.0332555
0.0331737
0.0331002
0.0330328
0.0329678
0.0329011
0.0328279
0.0327438
0.032645
0.0325288
0.0323938
0.0322401
0.0320695
0.0318849
0.0316905
0.0314911
0.0312918
0.0310975
0.0309124
0.0307397
0.0305813
0.0304379
0.0303086
0.0301914
0.0300832
0.0299803
0.0298784
0.0297732
0.0296607
0.0295372
0.0293995
0.0292451
0.0290722
0.0288794
0.0286658
0.0284309
0.0281744
0.027896
0.0275957
0.0272732
0.0269286
0.0265617
0.026173
0.0257627
0.0253319
0.0248817
0.0244136
0.0239293
0.0234303
0.0229179
0.0223926
0.0218541
0.0213008
0.0207301
0.020138
0.0195197
0.0188698
0.0181831
0.017455
0.0166827
0.0158657
0.0150066
0.0141114
0.0131903
0.0122568
0.011328
0.0104234
0.00956367
0.00876957
0.00806019
0.00745139
0.00695438
0.00657444
0.00631012
0.00615284
0.00608706
0.00609095
0.00613764
0.00619689
0.00623709
0.00622741
0.00614001
0.00595203
0.00564725
0.00521732
0.00466234
0.00399082
0.00321902
0.00236967
0.00147014
0.000550348
-0.000359566
-0.00123156
-0.00204176
-0.00277222
-0.0034121
-0.00395828
-0.00441532
-0.00479473
-0.00511377
-0.00539371
-0.00565783
-0.00592927
-0.00622899
-0.00657392
-0.00697548
-0.00743867
-0.00796163
-0.00853586
-0.00914691
-0.00977562
-0.0103996
-0.0109952
-0.0115391
-0.01201
-0.0123907
-0.0126687
-0.0128375
-0.0128966
-0.0128518
-0.0127146
-0.0125011
-0.0122313
-0.0119278
-0.0116138
-0.0113128
-0.0110465
-0.0108341
-0.0106913
-0.0106302
-0.010658
-0.0107777
-0.010988
-0.0112834
-0.0116547
-0.0120898
-0.0125744
-0.0130926
-0.0136277
-0.0141634
-0.014684
-0.0151753
-0.0156252
-0.0160238
-0.0163636
-0.01664
-0.0168504
-0.0169946
-0.0170742
-0.0170923
-0.0170534
-0.0169625
-0.0168254
-0.0166483
-0.0164376
-0.0161997
-0.0159416
-0.01567
-0.0153919
-0.0151144
-0.0148446
-0.0145893
-0.0143549
-0.0141469
-0.0139699
-0.0138267
-0.0137185
-0.0136442
-0.0136001
-0.0135806
-0.0135775
-0.0135806
-0.0135782
-0.0135579
-0.013507
-0.0134134
-0.0132666
-0.0130585
-0.0127839
-0.0124411
-0.0120323
-0.0115636
-0.0110448
-0.0104889
-0.00991143
-0.00932964
-0.00876132
-0.0082238
-0.00773286
-0.00730171
-0.00694018
-0.0066541
-0.00644494
-0.00630977
-0.00624148
-0.00622927
-0.00625939
-0.0063161
-0.00638266
-0.00644242
-0.00647988
-0.00648165
-0.0064372
-0.00633948
-0.00618528
-0.00597528
-0.00571392
-0.00540902
-0.00507115
-0.00471291
-0.00434797
-0.00399021
-0.00365264
-0.0033466
-0.00308085
-0.00286101
-0.00268908
-0.00256328
-0.00247808
-0.0024246
-0.00239111
-0.00236385
-0.00232791
-0.00226824
-0.0021706
-0.00202249
-0.00181389
-0.00153784
-0.00119077
-0.000772637
-0.00028676
0.000260438
0.000859918
0.00150061
0.00217005
0.0028551
0.00354256
0.00421985
0.00487552
0.00549973
0.00608455
0.00662423
0.00711526
0.00755637
0.00794839
0.00829403
0.00859756
0.00886445
0.00910089
0.00931338
0.0095082
0.00969096
0.0098662
0.010037
0.0102047
0.0103688
0.0105271
0.0106755
0.0108087
0.0109202
0.011003
0.0110501
0.0110553
0.0110131
0.01092
0.010774
0.0105753
0.0103262
0.0100312
0.00969625
0.00932903
0.00893815
0.00853285
0.00812245
0.00771593
0.00732149
0.00694617
0.00659556
0.00627365
0.00598277
0.00572364
0.00549566
0.00529724
0.00512631
0.00498092
0.00485992
0.00476363
0.00469454
0.00465786
0.00466199
0.00471879
0.00484364
0.00505525
0.00537515
0.00582698
0.00643539
0.00722479
0.00821781
0.00943365
0.0108864
0.0125832
0.0145232
0.0166955
0.0190793
0.0216428
0.0243437
0.0271302
0.0299423
0.0327137
0.0353745
0.0378542
0.0400848
0.0420039
0.0435583
0.0447065
0.0454217
0.0456933
0.0455284
0.0449527
0.0440093
0.0427583
0.0412744
0.0396442
0.0379624
0.0363283
0.0348408
0.0335936
0.032671
0.032143
0.0320614
0.0324564
0.0333347
0.034678
0.0364434
0.0385649
0.0409565
0.043516
0.0461306
0.0486825
0.0510553
0.0531401
0.0548416
0.0560829
0.0568097
0.0569926
0.0566279
0.0557378
0.0543676
0.0525826
0.0504637
0.0481018
0.0455927
0.0430309
0.0405048
0.0380919
0.0358555
0.0338418
0.0320793
0.0305782
0.0293325
0.0283216
0.0275135
0.0268684
0.0263428
0.0258926
0.0254773
0.0250624
0.0246218
0.0241392
0.0236087
0.0230347
0.0224306
0.0218175
0.0212216
0.0206723
0.0201997
0.0198316
0.0195915
