0.0186487
0.0220657
0.0252584
0.0281264
0.0305859
0.0325735
0.0340484
0.034993
0.0354121
0.0353306
0.0347902
0.0338456
0.03256
0.0310013
0.029238
0.0273355
0.0253537
0.0233445
0.0213503
0.0194034
0.0175251
0.0157269
0.0140104
0.0123696
0.0107924
0.00926321
0.00776607
0.00628793
0.0048222
0.00337222
0.00195445
0.000600998
-0.000638803
-0.00169806
-0.00249347
-0.00292804
-0.00289549
-0.00228615
-0.000994069
0.00107504
0.00399557
0.00781417
0.0125429
0.0181541
0.0245775
0.0316997
0.0393675
0.0473932
0.0555631
0.0636489
0.0714201
0.0786578
0.0851682
0.0907951
0.09543
0.0990193
0.101567
0.103133
0.103825
0.10379
0.103191
0.102195
0.100943
0.0995319
0.0979892
0.0962578
0.0941833
0.0915107
0.0878921
0.0829046
0.0760809
0.0669508
0.0550923
0.0401878
0.0220839
0.000847107
-0.0231894
-0.0493934
-0.0768213
-0.104231
-0.130123
-0.152808
-0.170504
-0.18145
-0.184048
-0.176994
-0.159416
-0.130993
-0.0920399
-0.0435572
0.0127705
0.0746294
0.139185
0.203241
0.263436
0.316469
0.359329
0.389514
0.405216
0.40546
0.390176
0.360205
0.317232
0.263658
0.202421
0.136781
0.0700952
0.00559178
-0.0538297
-0.105763
-0.148413
-0.180662
-0.202083
-0.212907
-0.213943
-0.206474
-0.192126
-0.172728
-0.150182
-0.126327
-0.102839
-0.0811424
-0.0623535
-0.0472495
-0.0362637
-0.0295042
-0.0267905
-0.0277046
-0.0316508
-0.0379185
-0.0457444
-0.0543693
-0.0630865
-0.0712805
-0.0784542
-0.0842441
-0.0884253
-0.0909067
-0.0917179
-0.0909909
-0.0889374
-0.085825
-0.0819529
-0.0776295
-0.073153
-0.0687954
-0.0647911
-0.0613284
-0.0585467
-0.0565355
-0.0553373
-0.0549519
-0.0553427
-0.0564425
-0.0581609
-0.0603898
-0.0630091
-0.0658911
-0.0689041
-0.0719153
-0.0747928
-0.077408
-0.0796368
-0.0813623
-0.0824763
-0.0828822
-0.0824979
-0.0812587
-0.0791204
-0.0760624
-0.0720898
-0.0672354
-0.06156
-0.0551522
-0.0481264
-0.0406199
-0.0327882
-0.0247997
-0.0168291
-0.00905048
-0.00163063
0.00527812
0.0115436
0.017059
0.0217461
0.0255577
0.0284779
0.0305209
0.0317287
0.0321671
0.0319207
0.0310883
0.0297766
0.0280951
0.0261506
0.0240426
0.0218601
0.0196782
0.0175568
0.0155398
0.0136561
0.0119202
0.0103351
0.00889464
0.00758633
0.00639449
0.00530271
0.00429595
0.00336198
0.00249192
0.00168004
0.000922792
0.000217319
-0.000440421
-0.00105757
-0.00164606
-0.00222384
-0.00281531
-0.00345095
-0.0041659
-0.00499765
-0.00598285
-0.00715348
-0.00853262
-0.0101301
-0.0119386
-0.0139299
-0.0160525
-0.0182302
-0.020362
-0.0223239
-0.0239718
-0.0251469
-0.0256817
-0.0254082
-0.0241669
-0.0218166
-0.0182443
-0.0133751
-0.00718131
0.000310416
0.00901339
0.0187784
0.0293943
0.0405922
0.0520537
0.0634224
0.0743202
0.0843649
0.0931917
0.100474
0.105946
0.109418
0.110799
0.110097
0.107429
0.103017
0.0971707
0.0902688
0.0827322
0.0749893
0.0674389
0.0604129
0.0541415
0.0487249
0.0441142
0.0401056
0.0363482
0.0323685
0.02761
0.0214856
0.0134419
0.00302799
-0.0100354
-0.0257925
-0.0440029
-0.0641105
-0.0852372
-0.106205
-0.125588
-0.141793
-0.153163
-0.158109
-0.155237
-0.143493
-0.122279
-0.0915571
-0.0519136
-0.00457864
0.0486027
0.105253
0.162592
0.217613
0.26728
0.308746
0.33956
0.357854
0.362485
0.353122
0.330275
0.295249
0.250043
0.197198
0.13961
0.080315
0.022289
-0.0317489
-0.0794963
-0.119188
-0.149668
-0.170416
-0.181525
-0.183637
-0.177852
-0.16561
-0.148564
-0.128454
-0.106981
-0.0857114
-0.0659864
-0.0488688
-0.0351085
-0.0251356
-0.0190751
-0.0167796
-0.0178761
-0.0218211
-0.027959
-0.0355805
-0.0439748
-0.0524755
-0.0604963
-0.0675562
-0.0732946
-0.0774761
-0.0799872
-0.0808262
-0.0800876
-0.0779437
-0.074625
-0.0704001
-0.0655572
-0.0603877
-0.0551723
-0.05017
-0.0456095
-0.041684
-0.0385468
-0.0363099
-0.0350424
-0.0347713
-0.0354816
-0.0371181
-0.039587
-0.0427582
-0.0464696
-0.0505311
-0.0547309
-0.0588427
-0.0626343
-0.0658767
-0.068355
-0.069878
-0.0702879
-0.0694692
-0.0673552
-0.0639321
-0.0592409
-0.0533757
-0.0464796
-0.0387369
-0.0303643
-0.0215992
-0.012688
-0.00387388
0.00461472
0.0125738
0.019832
0.0262557
0.0317526
0.0362716
0.0398017
0.0423681
0.0440271
0.0448608
0.0449703
0.0444697
0.04348
0.042124
0.0405211
0.0387833
0.0370121
0.035295
0.0337038
0.0322931
0.0310989
0.0301389
0.0294126
0.0289029
0.0285778
0.028393
0.0282953
0.0282257
0.0281235
0.0279298
0.0275913
0.0270632
0.0263122
0.0253187
0.024078
0.0226008
0.0209135
0.0190561
0.0170807
0.0150478
0.0130234
0.0110737
0.00926126
0.00763987
0.00625046
0.00511749
0.00424638
0.00362224
0.00321024
0.00295756
0.00279707
0.00265251
0.00244494
0.00210001
0.00155557
0.000769198
-0.000275244
-0.00156223
-0.00304113
-0.00462491
-0.00619144
-0.00758741
-0.00863476
-0.00913967
-0.00890341
-0.00773486
-0.0054637
-0.0019538
0.00288415
0.00908163
0.0166036
0.0253432
0.0351198
0.0456819
0.056714
0.0678487
0.0786826
0.0887964
0.0977771
0.105243
0.110867
0.114399
0.115688
0.114692
0.111487
0.106266
0.0993323
0.0910761
0.081953
0.0724492
0.063044
0.0541698
0.046174
0.0392837
0.0335802
0.0289827
0.0252466
0.0219769
0.0186559
0.0146874
0.00945215
0.00237274
-0.00701721
-0.0190053
-0.0336398
-0.0506831
-0.0695844
-0.0894762
-0.109199
-0.127353
-0.142382
-0.152673
-0.156682
-0.153067
-0.140818
-0.119378
-0.0887366
-0.0494967
-0.00288877
0.0492577
0.104595
0.160389
0.213683
0.261506
0.301072
0.329995
0.346465
0.349392
0.338487
0.314293
0.278135
0.232023
0.178501
0.120452
0.0608991
0.00279318
-0.051175
-0.0987356
-0.138158
-0.168322
-0.188743
-0.199546
-0.201403
-0.195438
-0.183111
-0.16609
-0.146121
-0.124911
-0.104021
-0.0847869
-0.068259
-0.0551726
-0.0459398
-0.0406649
-0.0391775
-0.0410804
-0.0458046
-0.0526691
-0.0609397
-0.0698829
-0.0788118
-0.0871238
-0.094326
-0.100051
-0.104063
-0.106253
-0.10663
-0.105306
-0.102474
-0.0983929
-0.0933647
-0.087716
-0.0817819
-0.075892
-0.0703585
-0.0654672
-0.0614702
-0.0585798
-0.056964
-0.0567424
-0.0579822
-0.0606955
-0.064836
-0.0702981
-0.0769158
-0.0844646
-0.0926655
-0.101192
-0.109679
-0.117736
-0.124966
-0.130977
-0.135408
-0.137943
-0.138334
-0.136412
-0.132104
-0.125436
-0.116538
-0.105635
-0.0930427
-0.0791481
-0.0643901
-0.0492371
-0.0341619
-0.0196174
-0.00601402
0.00629979
0.0170527
0.0260599
0.0332276
0.0385507
0.0421063
0.0440424
0.0445627
0.0439101
0.0423488
0.0401472
0.0375616
0.0348236
0.0321294
0.0296332
0.027444
0.0256258
0.0242007
0.0231545
0.022444
0.0220052
0.0217625
0.0216362
0.0215507
0.0214404
0.0212534
0.020955
0.0205275
0.01997
0.0192952
0.018526
0.0176918
0.0168233
0.0159487
0.0150903
0.0142612
0.0134648
0.012694
0.0119333
0.011161
0.0103533
0.00948904
0.00855462
0.00754923
0.00648943
0.00541282
0.00438027
0.00347641
0.00280806
0.00250054
0.00269178
0.00352461
0.00513754
0.00765457
0.0111748
0.0157624
0.0214382
0.0281732
0.0358845
0.0444348
0.0536349
0.0632504
0.073011
0.0826226
0.0917825
0.100195
0.107587
0.113727
0.118435
0.121599
0.123178
0.123211
0.121815
0.119176
0.115543
0.111208
0.106487
0.101697
0.0971296
0.0930228
0.0895368
0.0867301
0.0845428
0.0827862
0.081143
0.0791774
0.0763586
0.0720961
0.0657864
0.0568696
0.0448911
0.029566
0.0108396
-0.0110622
-0.0355969
-0.0618913
-0.0887522
-0.114705
-0.138063
-0.157022
-0.169779
-0.174665
-0.17029
-0.155677
-0.130384
-0.0945942
-0.0491719
0.00433636
0.0637486
0.12635
0.189046
0.248553
0.30162
0.345253
0.376934
0.394806
0.397813
0.385779
0.359417
0.320269
0.270589
0.213167
0.151126
0.087702
0.0260214
-0.0310926
-0.0812837
-0.12278
-0.154462
-0.175877
-0.18721
-0.18921
-0.183088
-0.17039
-0.152864
-0.132326
-0.110537
-0.0890959
-0.0693596
-0.0523828
-0.0388906
-0.029274
-0.0236085
-0.0216918
-0.0230949
-0.0272217
-0.033372
-0.0408027
-0.0487838
-0.0566463
-0.0638186
-0.0698527
-0.0744379
-0.0774037
-0.0787141
-0.0784529
-0.0768038
-0.0740274
-0.070435
-0.0663642
-0.0621547
-0.0581279
-0.0545693
-0.0517156
-0.0497459
-0.048777
-0.0488625
-0.0499951
-0.0521117
-0.0551003
-0.0588079
-0.0630492
-0.0676156
-0.0722833
-0.0768222
-0.0810029
-0.0846044
-0.0874207
-0.0892676
-0.0899887
-0.0894615
-0.0876025
-0.0843719
-0.079777
-0.0738744
-0.0667696
-0.0586157
-0.0496084
-0.0399799
-0.0299899
-0.0199146
-0.0100355
-0.000626295
0.00805984
0.0158016
0.0224201
0.0277867
0.0318284
0.0345299
0.0359329
0.0361314
0.0352653
0.0335105
0.0310677
0.0281503
0.0249718
0.0217338
0.0186157
0.0157661
0.0132967
0.0112791
0.00974403
0.0086843
0.00805895
0.00780008
0.00782073
0.00802342
0.00830853
0.00858205
0.00876192
0.00878263
0.0085979
0.00818117
0.00752432
0.00663466
0.0055309
0.0042385
0.00278518
0.00119691
-0.000504789
-0.0023042
-0.00419101
-0.00615835
-0.00819936
-0.0103028
-0.0124483
-0.0146011
-0.0167085
-0.0186969
-0.0204704
-0.0219125
-0.0228888
-0.023253
-0.022854
-0.0215449
-0.019193
-0.01569
-0.0109619
-0.00497792
0.00224244
0.0106243
0.0200349
0.0302844
0.0411293
0.0522791
0.0634059
0.0741572
0.0841704
0.0930891
0.100582
0.106358
0.110189
0.111922
0.111492
0.108934
0.104388
0.0980955
0.0903924
0.0816953
0.0724777
0.0632418
0.054484
0.0466561
0.0401264
0.0351416
0.0317942
0.0299985
0.0294791
0.029774
0.0302542
0.0301615
0.0286627
0.0249176
0.0181579
0.0077703
-0.00662192
-0.0250871
-0.0473299
-0.0726594
-0.0999871
-0.127858
-0.154516
-0.178003
-0.196287
-0.207408
-0.209643
-0.201656
-0.182647
-0.152464
-0.111673
-0.0615799
-0.00419793
0.0578516
0.121487
0.183359
0.240081
0.288463
0.325745
0.349799
0.359284
0.353744
0.333632
0.300267
0.255721
0.202659
0.144131
0.0833538
0.0234881
-0.0325683
-0.0823506
-0.123956
-0.156123
-0.178256
-0.190408
-0.193214
-0.187792
-0.175624
-0.158422
-0.137995
-0.116121
-0.0944371
-0.0743526
-0.0569858
-0.0431274
-0.0332313
-0.0274268
-0.0255527
-0.027204
-0.0317906
-0.0385989
-0.046855
-0.0557826
-0.0646546
-0.0728343
-0.0798059
-0.085194
-0.0887707
-0.0904538
-0.090296
-0.0884665
-0.0852287
-0.0809143
-0.0758966
-0.0705641
-0.0652957
-0.0604396
-0.0562952
-0.0530992
-0.0510165
-0.0501353
-0.0504662
-0.0519454
-0.0544411
-0.0577631
-0.0616738
-0.065902
-0.0701563
-0.0741397
-0.0775637
-0.0801616
-0.0817005
-0.0819916
-0.0808981
-0.0783418
-0.0743057
-0.0688354
-0.0620365
-0.0540702
-0.0451461
-0.0355126
-0.0254462
-0.015238
-0.00518126
0.00444274
0.0133772
0.0214015
0.0283404
0.0340715
0.0385286
0.0417027
0.0436396
0.0444338
0.0442207
0.0431657
0.0414534
0.0392745
0.0368146
0.0342433
0.031705
0.0293128
0.0271436
0.025238
0.0236011
0.0222066
0.0210034
0.0199229
0.0188877
0.0178202
0.0166508
0.0153247
0.0138071
0.012086
0.0101733
0.00810251
0.00592563
0.00370715
0.00151768
-0.000573232
-0.00250401
-0.00422706
-0.0057133
-0.00695468
-0.0079645
-0.00877531
-0.00943468
-0.0099991
-0.0105265
-0.0110682
-0.0116609
-0.0123196
-0.0130318
-0.0137542
-0.0144119
-0.0148998
-0.0150882
-0.0148295
-0.0139684
-0.0123529
-0.00984669
-0.00634133
-0.00176742
0.00389587
0.0106141
0.0182941
0.0267845
0.0358805
0.045332
0.054856
0.064152
0.0729187
0.0808729
0.0877666
0.0934033
0.0976512
0.100451
0.101822
0.101853
0.100701
0.0985715
0.0956978
0.0923175
0.0886448
0.0848427
0.0809985
0.0771036
0.0730416
0.0685871
0.0634158
0.0571283
0.0492862
0.0394601
0.0272849
0.0125204
-0.00488971
-0.0247659
-0.0466537
-0.0698034
-0.0931735
-0.115461
-0.135161
-0.150651
-0.160301
-0.162596
-0.156274
-0.140454
-0.114749
-0.0793609
-0.03513
0.0164592
0.073322
0.13287
0.192158
0.248064
0.297505
0.337653
0.366143
0.381257
0.382053
0.368439
0.341185
0.301861
0.252716
0.196509
0.136306
0.0752649
0.0164179
-0.0375176
-0.084298
-0.122266
-0.150413
-0.168392
-0.176482
-0.175516
-0.166771
-0.151847
-0.132529
-0.110656
-0.0879973
-0.0661463
-0.0464417
-0.0299105
-0.0172399
-0.00877411
-0.00453478
-0.00425906
-0.0074522
-0.0134485
-0.0214756
-0.0307182
-0.0403758
-0.0497127
-0.0580978
-0.0650322
-0.0701654
-0.0733003
-0.0743875
-0.0735124
-0.0708745
-0.0667641
-0.0615354
-0.0555808
-0.0493051
-0.043104
-0.0373444
-0.0323496
-0.0283881
-0.0256658
-0.0243225
-0.0244302
-0.0259941
-0.028956
-0.0331983
-0.03855
-0.0447936
-0.0516724
-0.0588996
-0.0661685
-0.0731625
-0.0795671
-0.0850818
-0.0894324
-0.0923825
-0.0937445
-0.0933887
-0.09125
-0.0873322
-0.0817086
-0.0745196
-0.0659659
-0.0562999
-0.0458127
-0.0348205
-0.0236491
-0.0126183
-0.0020276
0.00785686
0.0168125
0.0246673
0.0313041
0.0366604
0.0407261
0.0435384
0.0451737
0.0457397
0.0453656
0.0441932
0.0423683
0.0400334
0.0373222
0.0343547
0.0312357
0.0280529
0.024878
0.0217674
0.0187648
0.0159034
0.0132082
0.0106986
0.00839022
0.00629586
0.00442652
0.00279128
0.00139688
0.000246779
-0.000660075
-0.00133055
-0.00177864
-0.00202648
-0.00210507
-0.00205433
-0.00192263
-0.0017655
-0.00164358
-0.00161991
-0.00175645
-0.00211024
-0.00272914
-0.0036476
-0.00488266
-0.00643034
-0.00826298
-0.0103275
-0.0125449
-0.0148113
-0.0170005
-0.0189678
-0.0205562
-0.0216032
-0.0219493
-0.0214471
-0.0199714
-0.0174282
-0.0137632
-0.00896959
-0.00309184
0.00377179
0.0114709
0.0198082
0.0285476
0.0374266
0.0461702
0.0545072
0.0621865
0.068993
0.0747613
0.079386
0.0828276
0.0851134
0.0863324
0.0866243
0.0861641
0.0851412
0.083737
0.0820999
0.0803223
0.0784201
0.0763177
0.0738405
0.0707162
0.066587
0.0610323
0.0536024
0.043862
0.0314408
0.0160885
-0.00227042
-0.0234868
-0.047147
-0.0725488
-0.0986972
-0.124325
-0.147938
-0.167889
-0.182474
-0.190049
-0.189158
-0.178665
-0.157881
-0.126667
-0.0855083
-0.0355517
0.02141
0.0830025
0.146387
0.20842
0.265856
0.31556
0.354731
0.381108
0.393138
0.390093
0.372131
0.340275
0.296342
0.2428
0.18259
0.118906
0.054982
-0.00612585
-0.0617242
-0.109632
-0.148282
-0.176771
-0.194865
-0.202947
-0.201938
-0.193188
-0.178339
-0.159197
-0.137596
-0.115281
-0.0938054
-0.0744584
-0.0582135
-0.045707
-0.0372401
-0.0328036
-0.0321189
-0.034692
-0.0398747
-0.0469272
-0.0550783
-0.0635803
-0.0717535
-0.0790212
-0.0849327
-0.0891749
-0.0915745
-0.0920905
-0.0908005
-0.0878821
-0.0835911
-0.0782399
-0.0721752
-0.0657588
-0.0593502
-0.0532919
-0.0478986
-0.043448
-0.0401744
-0.0382634
-0.0378483
-0.0390071
-0.0417595
-0.0460655
-0.0518242
-0.0588735
-0.0669922
-0.0759039
-0.0852834
-0.0947661
-0.10396
-0.112461
-0.11987
-0.125809
-0.129945
-0.132002
-0.131779
-0.129166
-0.124145
-0.116802
-0.107315
-0.0959535
-0.0830628
-0.0690451
-0.0543401
-0.0394019
-0.0246758
-0.0105767
0.00253012
0.0143442
0.0246404
0.0332746
0.0401835
0.0453803
0.0489458
0.0510163
0.05177
0.0514122
0.0501601
0.0482304
0.0458274
0.043135
0.0403105
0.0374821
0.0347485
0.0321809
0.0298263
0.0277124
0.025852
0.0242476
0.0228953
0.0217873
0.0209137
0.0202626
0.0198194
0.0195655
0.0194761
0.0195187
0.0196517
0.0198238
0.0199749
0.0200379
0.0199423
0.0196183
0.0190031
0.0180467
0.0167176
0.0150095
0.0129451
0.0105793
0.00800053
0.00532893
0.00271284
0.000322451
-0.00165851
-0.00304277
-0.0036506
-0.00332121
-0.00192365
0.000633477
0.00439434
0.00935079
0.0154403
0.0225472
0.0305073
0.0391152
0.0481347
0.0573114
0.0663859
0.0751078
0.0832498
0.0906192
0.0970678
0.102499
0.10687
0.110192
0.11252
0.11395
0.114597
0.114582
0.114014
0.112967
0.111464
0.109462
0.106842
0.103407
0.0988907
0.0929685
0.0852874
0.0754985
0.0633002
0.0484848
0.0309869
0.010929
-0.0113416
-0.0352279
-0.0598755
-0.0841867
-0.106857
-0.126435
-0.141407
-0.150296
-0.151776
-0.144793
-0.128671
-0.103216
-0.0687848
-0.0263215
0.0226478
0.0760666
0.131446
0.186005
0.236843
0.281136
0.316337
0.340356
0.351728
0.349715
0.33437
0.306533
0.267761
0.220215
0.166496
0.109455
0.0519971
-0.00311252
-0.0534212
-0.0969254
-0.132167
-0.158286
-0.175021
-0.182681
-0.182064
-0.174366
-0.161064
-0.14379
-0.124217
-0.103942
-0.0844011
-0.0667894
-0.0520188
-0.040692
-0.0331021
-0.0292524
-0.0288929
-0.0315687
-0.036676
-0.0435212
-0.051378
-0.0595396
-0.0673636
-0.0743062
-0.0799461
-0.0839973
-0.0863118
-0.0868726
-0.0857796
-0.0832299
-0.0794945
-0.0748932
-0.0697698
-0.0644691
-0.0593163
-0.0546014
-0.0505659
-0.0473956
-0.0452166
-0.0440948
-0.0440393
-0.0450073
-0.0469106
-0.0496238
-0.0529917
-0.0568367
-0.0609664
-0.0651797
-0.0692725
-0.0730433
-0.0762975
-0.0788528
-0.0805436
-0.0812265
-0.0807847
-0.0791337
-0.0762256
-0.0720534
-0.0666537
-0.0601083
-0.0525432
-0.0441259
-0.0350604
-0.0255796
-0.0159361
-0.00639134
0.00279567
0.0113804
0.0191438
0.0259022
0.031515
0.0358905
0.0389884
0.0408199
0.0414446
0.0409656
0.0395218
0.0372795
0.0344219
0.03114
0.0276221
0.0240457
0.0205701
0.01733
0.0144324
0.0119541
0.00994098
0.00840985
0.00735017
0.0067276
0.00648773
0.00656025
0.00686308
0.00730632
0.00779605
0.00823771
0.00853934
0.00861461
0.00838585
0.0077871
0.00676739
0.00529408
0.00335627
0.000968125
-0.00182822
-0.00496048
-0.00832513
-0.0117878
-0.0151855
-0.018331
-0.0210189
-0.023035
-0.0241658
-0.0242112
-0.0229968
-0.0203866
-0.0162953
-0.0106977
-0.00363675
0.00477298
0.0143454
0.0248274
0.035908
0.0472316
0.0584148
0.0690664
0.0788079
0.087296
0.0942421
0.0994309
0.102734
0.104118
0.103647
0.101482
0.097862
0.0930949
0.0875278
0.0815213
0.0754184
0.0695123
0.0640176
0.0590452
0.0545844
0.0504957
0.0465141
0.0422658
0.0372978
0.031119
0.0232516
0.0132883
0.000951964
-0.0138482
-0.0309694
-0.0500019
-0.0702553
-0.0907674
-0.110339
-0.127592
-0.141057
-0.149271
-0.1509
-0.144853
-0.130401
-0.107275
-0.07574
-0.0366338
0.00863969
0.0581585
0.109579
0.160273
0.207497
0.248578
0.281113
0.30314
0.313292
0.310904
0.296059
0.269585
0.232988
0.188332
0.138087
0.0849449
0.0316299
-0.01928
-0.0655149
-0.105238
-0.137133
-0.160445
-0.17498
-0.181068
-0.179492
-0.17139
-0.15815
-0.141294
-0.122367
-0.10284
-0.0840241
-0.0670069
-0.0526147
-0.0413915
-0.0336009
-0.029246
-0.0281028
-0.0297647
-0.0336923
-0.0392656
-0.0458343
-0.052764
-0.0594749
-0.0654726
-0.0703695
-0.0738969
-0.0759081
-0.0763738
-0.0753711
-0.0730669
-0.0696981
-0.0655502
-0.0609347
-0.0561681
-0.051553
-0.0473608
-0.0438193
-0.0411031
-0.0393282
-0.0385497
-0.0387636
-0.039911
-0.0418843
-0.0445357
-0.0476866
-0.0511369
-0.0546758
-0.0580902
-0.0611747
-0.0637387
-0.065614
-0.0666598
-0.0667679
-0.0658652
-0.0639159
-0.0609216
-0.056921
-0.0519869
-0.0462235
-0.0397614
-0.0327526
-0.0253642
-0.0177715
-0.0101519
-0.00267816
0.00448814
0.0112015
0.0173375
0.022796
0.0275037
0.0314151
0.0345126
0.0368054
0.038327
0.0391321
0.0392927
0.0388934
0.0380269
0.0367887
0.0352724
0.0335656
0.0317459
0.029878
0.0280118
0.0261817
0.0244069
0.0226925
0.0210324
0.0194123
0.0178133
0.0162163
0.0146054
0.0129716
0.0113152
0.00964729
0.00798971
0.00637389
0.00483817
0.00342404
0.00217154
0.0011142
0.000274138
-0.000342287
-0.000747614
-0.000974878
-0.00107727
-0.00112569
-0.00120428
-0.00140399
-0.00181467
-0.00251622
-0.00356938
-0.00500689
-0.00682594
-0.00898236
-0.0113874
-0.0139076
-0.0163676
-0.018557
-0.0202402
-0.0211686
-0.0210962
-0.0197955
-0.0170748
-0.012794
-0.00687934
0.000665249
0.00975047
0.0201986
0.0317458
0.0440496
0.0567025
0.0692494
0.0812107
0.0921075
0.101489
0.108959
0.114205
0.117018
0.117308
0.115121
0.110636
0.104161
0.0961163
0.0870112
0.0774099
0.067892
0.0590087
0.051237
0.0449357
0.040307
0.0373672
0.0359297
0.0356039
0.035811
0.0358183
0.034791
0.0318596
0.0261985
0.0171108
0.00411404
-0.0129824
-0.0340142
-0.0584203
-0.0852304
-0.113083
-0.140282
-0.164881
-0.184807
-0.198003
-0.202589
-0.197024
-0.180261
-0.151876
-0.112162
-0.0621726
-0.00371326
0.0607336
0.128137
0.195099
0.258076
0.31362
0.358624
0.390546
0.407597
0.40887
0.394401
0.365162
0.322973
0.270361
0.210367
0.146321
0.0816085
0.0194471
-0.0373151
-0.0863567
-0.125993
-0.155233
-0.173784
-0.182007
-0.180831
-0.171641
-0.156139
-0.136209
-0.113772
-0.090662
-0.0685208
-0.048713
-0.0322726
-0.0198761
-0.0118424
-0.0081558
-0.00850836
-0.0123563
-0.0189846
-0.0275755
-0.0372748
-0.0472523
-0.056754
-0.0651418
-0.0719219
-0.0767596
-0.079483
-0.080075
-0.0786581
-0.075471
-0.0708429
-0.0651643
-0.0588589
-0.0523573
-0.046073
-0.0403838
-0.0356157
-0.032033
-0.0298317
-0.0291361
-0.0299997
-0.0324072
-0.036279
-0.0414767
-0.0478099
-0.0550429
-0.0629033
-0.0710902
-0.0792839
-0.0871565
-0.0943826
-0.100652
-0.105679
-0.109221
-0.111079
-0.111119
-0.10927
-0.105532
-0.0999798
-0.0927549
-0.0840633
-0.0741639
-0.0633562
-0.0519652
-0.0403253
-0.0287641
-0.0175872
-0.0070646
0.00257954
0.0111744
0.0186063
0.0248183
0.029808
0.0336208
0.0363428
0.0380907
0.0390029
0.0392287
0.0389201
0.038223
0.0372712
0.0361806
0.0350462
0.0339397
0.0329093
0.0319798
0.0311546
0.0304183
0.02974
0.0290775
0.0283809
0.0275978
0.0266771
0.0255733
0.0242503
0.0226837
0.0208634
0.0187946
0.016498
0.0140091
0.0113768
0.00866058
0.00592768
0.0032494
0.000696913
-0.00166298
-0.0037722
-0.00558544
-0.00707374
-0.00822725
-0.00905697
-0.0095952
-0.00989446
-0.010025
-0.0100706
-0.0101233
-0.0102765
-0.0106175
-0.0112203
-0.0121374
-0.013394
-0.0149818
-0.0168562
-0.0189347
-0.0210984
-0.023196
-0.02505
-0.0264656
-0.0272419
-0.027183
-0.0261115
-0.0238803
-0.0203844
-0.0155704
-0.00944369
-0.00207255
0.00641084
0.0158134
0.0258873
0.0363397
0.0468447
0.0570585
0.0666352
0.0752434
0.0825836
0.0884035
0.092512
0.0947914
0.0952056
0.0938047
0.0907258
0.0861887
0.0804863
0.0739712
0.0670354
0.0600873
0.0535231
0.0476974
0.0428909
0.0392806
0.0369133
0.035685
0.0353299
0.0354207
0.0353838
0.0345284
0.0320916
0.027298
0.0194296
0.0079042
-0.00764553
-0.0272978
-0.0507796
-0.0774247
-0.106158
-0.135511
-0.163672
-0.188574
-0.208015
-0.219802
-0.221921
-0.212708
-0.191016
-0.156361
-0.109035
-0.0501585
0.0183097
0.0936417
0.172467
0.250963
0.325091
0.39086
0.444613
0.483281
0.504614
0.507348
0.491301
0.457387
0.40754
0.344575
0.271973
0.193632
0.113591
0.0357656
-0.0363044
-0.0996554
-0.152051
-0.192069
-0.219127
-0.233442
-0.235948
-0.228164
-0.212037
-0.189777
-0.163682
-0.135985
-0.108719
-0.0836064
-0.0619899
-0.0447921
-0.0325098
-0.025238
-0.0227171
-0.0243996
-0.0295256
-0.0372048
-0.0464946
-0.0564724
-0.0662957
-0.0752491
-0.0827753
-0.0884918
-0.0921921
-0.0938362
-0.0935304
-0.0915
-0.0880595
-0.0835801
-0.0784599
-0.0730963
-0.0678632
-0.0630946
-0.0590719
-0.0560176
-0.0540929
-0.0533993
-0.0539814
-0.0558322
-0.0588985
-0.0630857
-0.0682623
-0.0742638
-0.0808962
-0.0879389
-0.0951486
-0.102264
-0.10901
-0.115108
-0.120283
-0.124275
-0.126849
-0.127812
-0.127017
-0.124378
-0.119876
-0.113566
-0.105571
-0.0960853
-0.0853613
-0.0737006
-0.0614386
-0.0489271
-0.0365166
-0.0245389
-0.0132911
-0.00302211
0.00607708
0.0138791
0.0203217
0.0254047
0.0291839
0.0317609
0.0332722
0.0338762
0.0337409
0.0330327
0.0319065
0.0304989
0.0289238
0.0272706
0.0256052
0.0239726
0.0224014
0.0209084
0.0195037
0.0181948
0.0169902
0.0159008
0.0149402
0.0141241
0.0134672
0.0129808
0.012669
0.0125256
0.0125318
0.0126546
0.0128467
0.0130487
0.0131914
0.0132011
0.0130048
0.0125368
0.0117455
0.0105992
0.00909228
0.00724907
0.00512668
0.00281554
0.000437978
-0.00185551
-0.00389199
-0.00548372
-0.00643741
-0.00656457
-0.00569251
-0.00367547
-0.000405168
0.00417973
0.010086
0.0172604
0.0255874
0.0348899
0.0449333
0.0554336
0.0660684
0.0764909
0.0863472
0.095294
0.103018
0.109255
0.113804
0.116546
0.117449
0.116577
0.114081
0.110202
0.105245
0.0995657
0.0935395
0.0875328
0.0818697
0.0767988
0.0724636
0.0688784
0.0659122
0.0632854
0.0605782
0.0572546
0.0527016
0.0462807
0.0373915
0.0255424
0.0104221
-0.0080319
-0.0295773
-0.0536277
-0.0792379
-0.105118
-0.129679
-0.15111
-0.167487
-0.176908
-0.177639
-0.168271
-0.147872
-0.116114
-0.0733708
-0.0207667
0.0398252
0.105848
0.174186
0.241339
0.303652
0.357557
0.399833
0.427848
0.439761
0.434672
0.412694
0.374953
0.323508
0.261192
0.191407
0.117875
0.0443774
-0.0255032
-0.0886064
-0.142377
-0.184991
-0.215421
-0.23344
-0.239565
-0.234959
-0.221297
-0.200602
-0.175087
-0.146985
-0.118411
-0.0912344
-0.0669911
-0.0468243
-0.0314599
-0.0212123
-0.0160181
-0.0154903
-0.0189877
-0.0256927
-0.0346897
-0.0450406
-0.0558505
-0.0663217
-0.0757927
-0.0837621
-0.0898983
-0.094035
-0.0961566
-0.0963748
-0.0949003
-0.0920127
-0.0880301
-0.0832822
-0.0780876
-0.0727359
-0.0674767
-0.062513
-0.0579998
-0.0540472
-0.0507256
-0.048072
-0.0460975
-0.044794
-0.0441387
-0.044098
-0.0446291
-0.0456797
-0.0471871
-0.0490755
-0.0512549
-0.0536187
-0.0560438
-0.0583916
-0.0605108
-0.0622426
-0.063427
-0.0639103
-0.0635545
-0.0622452
-0.0599004
-0.056477
-0.051976
-0.0464446
-0.0399767
-0.032709
-0.0248161
-0.016502
-0.00799017
0.00048695
0.00869957
0.0164314
0.0234894
0.0297124
0.034977
0.0392014
0.0423476
0.0444202
0.0454636
0.0455577
0.0448119
0.0433582
0.0413433
0.0389218
0.036248
0.0334692
0.0307196
0.0281152
0.025749
0.0236888
0.0219749
0.0206198
0.0196086
0.0189014
0.0184358
0.0181311
0.017893
0.0176189
0.0172035
0.0165453
0.0155516
0.0141452
0.0122683
0.00988785
0.00699824
0.00362407
-0.000178849
-0.00432352
-0.0086931
-0.0131436
-0.017508
-0.0216014
-0.0252278
-0.0281874
-0.030286
-0.0313439
-0.0312059
-0.0297514
-0.026903
-0.022635
-0.0169791
-0.010028
-0.00193522
0.00708772
0.0167791
0.0268377
0.0369379
0.0467463
0.0559413
0.0642325
0.0713791
0.0772063
0.0816165
0.0845962
0.0862157
0.0866217
0.0860229
0.0846688
0.0828234
0.0807352
0.0786061
0.0765616
0.0746267
0.0727079
0.0705867
0.0679253
0.0642859
0.059164
0.052035
0.042411
0.0299042
0.0142928
-0.00441803
-0.0259451
-0.0496925
-0.0747397
-0.0998556
-0.123542
-0.144108
-0.159767
-0.168762
-0.169502
-0.160705
-0.141529
-0.111696
-0.0715676
-0.0221973
0.0346821
0.0967165
0.161046
0.22447
0.283647
0.33532
0.376549
0.404929
0.418765
0.417207
0.400314
0.36905
0.325209
0.271278
0.210249
0.145405
0.0800868
0.0174699
-0.0396325
-0.0889297
-0.128765
-0.158173
-0.176887
-0.185291
-0.18434
-0.175442
-0.160323
-0.140884
-0.119063
-0.0967051
-0.0754558
-0.0566802
-0.0414077
-0.0303064
-0.023684
-0.0215116
-0.0234673
-0.0289919
-0.0373543
-0.0477187
-0.0592098
-0.0709734
-0.0822265
-0.092298
-0.100657
-0.106928
-0.110899
-0.112514
-0.111864
-0.109161
-0.104723
-0.0989426
-0.0922618
-0.0851456
-0.0780582
-0.0714405
-0.0656919
-0.0611546
-0.0581016
-0.0567283
-0.0571469
-0.0593839
-0.0633805
-0.0689962
-0.0760136
-0.0841476
-0.0930557
-0.102351
-0.111618
-0.120427
-0.128355
-0.135002
-0.140008
-0.143072
-0.143961
-0.142526
-0.138708
-0.132536
-0.124134
-0.113709
-0.101543
-0.087979
-0.0734058
-0.0582392
-0.0429036
-0.0278126
-0.0133523
0.000134392
0.0123599
0.023101
0.0322044
0.0395882
0.0452397
0.0492109
0.0516099
0.0525918
0.0523466
0.0510879
0.0490405
0.046429
0.0434676
0.0403508
0.0372465
0.0342909
0.0315848
0.0291929
0.0271438
0.0254329
0.024026
0.0228642
0.0218699
0.0209533
0.0200188
0.0189723
0.017727
0.0162094
0.0143648
0.012161
0.00959188
0.00667926
0.00347367
5.3815e-005
-0.00347534
-0.00698582
-0.0103313
-0.0133526
-0.015885
-0.0177652
-0.0188401
-0.0189745
-0.0180591
-0.016018
-0.012814
-0.00845357
-0.00298841
0.00348453
0.010826
0.0188597
0.0273804
0.0361638
0.0449783
0.0535973
0.0618119
0.0694432
0.0763523
0.0824478
0.0876908
0.0920947
0.095722
0.0986756
0.101087
0.103098
0.104846
0.106441
0.107946
0.109359
0.110597
0.111491
0.111778
0.111112
0.109074
0.105201
0.0990166
0.0900766
0.0780139
0.0625918
0.0437558
0.0216798
-0.00319628
-0.0301434
-0.0581396
-0.0858887
-0.111864
-0.134378
-0.151676
-0.162049
-0.16396
-0.156177
-0.137899
-0.108865
-0.0694386
-0.0206459
0.0358217
0.0976635
0.162075
0.225899
0.285822
0.338586
0.381215
0.41123
0.426832
0.427037
0.411752
0.381782
0.33877
0.285071
0.22358
0.157521
0.0902227
0.0248986
-0.0355543
-0.0887198
-0.132783
-0.166598
-0.189706
-0.202305
-0.205172
-0.199563
-0.187086
-0.169556
-0.148869
-0.126864
-0.10522
-0.085365
-0.0684185
-0.0551553
-0.046
-0.0410432
-0.0400779
-0.0426506
-0.048122
-0.0557323
-0.0646662
-0.0741132
-0.0833213
-0.0916388
-0.0985464
-0.103677
-0.106822
-0.107932
-0.107099
-0.104545
-0.10059
-0.0956275
-0.0900952
-0.0844442
-0.079113
-0.0745027
-0.070957
-0.0687466
-0.0680584
-0.0689896
-0.0715463
-0.0756463
-0.0811258
-0.0877485
-0.095218
-0.103191
-0.111295
-0.119138
-0.126332
-0.132504
-0.137312
-0.140459
-0.141705
-0.140878
-0.13788
-0.132694
-0.125381
-0.116085
-0.105021
-0.0924709
-0.0787698
-0.0642918
-0.0494343
-0.0346002
-0.0201806
-0.00653813
0.00600807
0.017195
0.026825
0.0347713
0.0409806
0.0454701
0.0483232
0.0496805
0.0497291
0.0486902
0.0468056
0.0443245
0.0414902
0.0385283
0.0356372
0.0329797
0.0306776
0.0288084
0.0274047
0.026456
0.0259123
0.0256899
0.0256787
0.0257508
0.0257693
0.0255984
0.0251119
0.0242029
0.0227905
0.0208268
0.0183009
0.0152417
0.0117182
0.00783766
0.00374174
-0.000399588
-0.00439576
-0.00804478
-0.0111434
-0.0134977
-0.0149341
-0.0153088
-0.0145167
-0.0124986
-0.00924542
-0.00480022
0.000742826
0.00724258
0.014518
0.0223575
0.0305312
0.0388031
0.046945
0.0547491
0.0620388
0.0686774
0.0745729
0.0796788
0.0839903
0.0875358
0.0903655
0.0925351
0.0940891
0.0950427
0.0953656
0.0949686
0.0936961
0.0913244
0.0875695
0.0821034
0.0745799
0.0646697
0.0521021
0.0367119
0.0184868
-0.00238752
-0.0254914
-0.0501478
-0.0754165
-0.10011
-0.122834
-0.142052
-0.15617
-0.163648
-0.163116
-0.153497
-0.134127
-0.104857
-0.0661212
-0.0189811
0.034889
0.0932566
0.153439
0.212451
0.267198
0.314676
0.352186
0.377536
0.389202
0.386446
0.369376
0.338941
0.296849
0.24545
0.187551
0.12622
0.0645658
0.00553898
-0.0482553
-0.0947008
-0.132272
-0.160084
-0.177897
-0.186073
-0.185495
-0.177462
-0.163561
-0.145539
-0.12517
-0.104142
-0.0839554
-0.0658554
-0.0507773
-0.0393277
-0.0317852
-0.0281246
-0.028057
-0.0310824
-0.0365499
-0.0437195
-0.0518225
-0.0601157
-0.0679277
-0.0746946
-0.079985
-0.083513
-0.0851417
-0.0848764
-0.0828503
-0.0793038
-0.0745606
-0.069
-0.0630299
-0.0570603
-0.0514787
-0.0466288
-0.0427937
-0.0401828
-0.0389239
-0.0390589
-0.0405457
-0.0432621
-0.047015
-0.0515519
-0.0565745
-0.0617547
-0.0667512
-0.0712265
-0.0748632
-0.0773794
-0.0785422
-0.0781787
-0.0761841
-0.0725264
-0.0672477
-0.0604614
-0.0523462
-0.0431368
-0.0331112
-0.0225768
-0.0118545
-0.00126251
0.0088985
0.0183598
0.0268961
0.0343341
0.0405581
0.0455122
0.0491983
0.0516722
0.0530361
0.0534295
0.0530188
0.0519853
0.050515
0.0487872
0.0469658
0.0451915
0.0435767
0.042202
0.0411153
0.0403328
0.0398417
0.0396042
0.0395627
0.0396454
0.0397715
0.0398572
0.0398198
0.0395823
0.039076
0.0382435
0.0370401
0.0354354
0.0334147
0.0309797
0.0281503
0.0249654
0.0214847
0.017789
0.0139813
0.0101858
0.00654677
0.00322451
0.000391042
-0.00177676
-0.00310541
-0.00343426
-0.00262581
-0.000576107
0.00277547
0.0074378
0.0133618
0.0204374
0.0284936
0.037303
0.0465898
0.0560423
0.0653282
0.0741124
0.0820768
0.0889397
0.0944735
0.0985203
0.101003
0.101931
0.101397
0.0995747
0.0966974
0.0930427
0.088904
0.0845621
0.0802543
0.0761454
0.0723022
0.0686752
0.0650898
0.0612489
0.056749
0.0511095
0.0438155
0.0343702
0.0223566
0.00750073
-0.0102665
-0.0307566
-0.0534848
-0.077652
-0.102152
-0.125605
-0.146425
-0.162907
-0.173344
-0.176157
-0.170037
-0.154072
-0.127873
-0.0916591
-0.0463098
0.00663024
0.065001
0.126129
0.186978
0.244341
0.295052
0.336216
0.365416
0.3809
0.381711
0.367763
0.339845
0.299561
0.249205
0.191586
0.129824
0.0671277
0.00657967
-0.0490594
-0.0975093
-0.137084
-0.166757
-0.186168
-0.195595
-0.195874
-0.188295
-0.174472
-0.156209
-0.135364
-0.113728
-0.0929118
-0.0742712
-0.0588449
-0.0473277
-0.0400662
-0.0370783
-0.0380912
-0.0425938
-0.0498974
-0.0592009
-0.0696548
-0.080421
-0.0907253
-0.0998998
-0.107414
-0.112897
-0.116142
-0.117109
-0.115914
-0.112805
-0.108143
-0.102373
-0.0959889
-0.089506
-0.0834289
-0.0782238
-0.0742938
-0.0719586
-0.0714397
-0.0728502
-0.0761911
-0.081352
-0.0881183
-0.0961819
-0.105158
-0.114601
-0.124033
-0.132959
-0.140898
-0.1474
-0.152075
-0.154605
-0.154763
-0.152424
-0.147568
-0.14028
-0.13075
-0.119254
-0.106145
-0.0918356
-0.0767709
-0.0614121
-0.0462125
-0.0315972
-0.0179453
-0.00557524
0.0052659
0.0144083
0.0217614
0.0273115
0.031116
0.033294
0.0340153
0.033488
0.0319445
0.0296288
0.0267841
0.0236412
0.0204095
0.0172695
0.0143672
0.0118117
0.00967352
0.00798584
0.00674717
0.00592531
0.00546253
0.00528139
0.00529086
0.00539244
0.00548601
0.00547502
0.00527106
0.00479758
0.0039929
0.00281247
0.00123046
-0.000759034
-0.00314131
-0.00588072
-0.00892068
-0.012184
-0.0155739
-0.0189751
-0.0222564
-0.0252734
-0.0278724
-0.0298956
-0.0311873
-0.0316004
-0.0310046
-0.0292941
-0.0263956
-0.0222752
-0.0169446
-0.0104649
-0.00294798
0.00544469
0.0145064
0.0239926
0.0336319
0.0431384
0.0522272
0.06063
0.0681112
0.0744829
0.0796169
0.0834541
0.0860086
0.0873663
0.0876786
0.0871487
0.0860131
0.0845184
0.0828939
0.0813235
0.0799182
0.0786919
0.0775432
0.076247
0.0744566
0.0717193
0.0675058
0.0612534
0.0524211
0.0405532
0.0253478
0.00672342
-0.0151218
-0.0396658
-0.0660389
-0.093027
-0.119105
-0.142501
-0.161294
-0.173537
-0.1774
-0.171321
-0.154163
-0.125349
-0.0849727
-0.0338682
0.0263725
0.0934375
0.164394
0.235846
0.304134
0.365576
0.416722
0.454599
0.476935
0.482328
0.470359
0.441623
0.397686
0.340966
0.274556
0.201996
0.127023
0.0533209
-0.0157175
-0.0771901
-0.128837
-0.169138
-0.197345
-0.213471
-0.218213
-0.212846
-0.199087
-0.17894
-0.154544
-0.128018
-0.10134
-0.0762338
-0.0540946
-0.0359434
-0.0224094
-0.0137411
-0.0098407
-0.0103162
-0.014546
-0.0217494
-0.0310588
-0.0415874
-0.0524888
-0.0630069
-0.0725124
-0.0805271
-0.0867345
-0.0909794
-0.0932573
-0.0936955
-0.0925293
-0.0900737
-0.0866958
-0.0827862
-0.078734
-0.0749049
-0.0716232
-0.0691588
-0.0677183
-0.0674405
-0.0683949
-0.0705841
-0.0739475
-0.0783678
-0.0836776
-0.0896677
-0.0960952
-0.102692
-0.109174
-0.115249
-0.120628
-0.12503
-0.128196
-0.129896
-0.129935
-0.128167
-0.124497
-0.118888
-0.111368
-0.102028
-0.0910203
-0.0785604
-0.0649149
-0.050395
-0.0353446
-0.0201264
-0.00510708
0.00935751
0.022938
0.0353453
0.0463425
0.0557548
0.0634752
0.069468
0.0737672
0.0764725
0.077741
0.0777768
0.0768175
0.07512
0.0729458
0.0705458
0.068147
0.0659413
0.0640762
0.0626494
0.0617054
0.0612367
0.0611877
0.0614604
0.0619239
0.0624245
0.0627972
0.0628772
0.0625116
0.0615694
0.0599514
0.0575971
0.0544904
0.0506631
0.0461959
0.0412176
0.0359013
0.0304591
0.0251339
0.0201896
0.0158992
0.0125318
0.0103379
0.00953575
0.0102965
0.012732
0.016884
0.0227166
0.0301123
0.0388719
0.0487199
0.0593137
0.0702582
0.0811233
0.091466
0.100854
0.10889
0.115237
0.11964
0.121944
0.122106
0.120205
0.116438
0.111112
0.104625
0.0974388
0.0900484
0.0829403
0.0765514
0.071227
0.0671813
0.0644656
0.0629464
0.0622977
0.0620094
0.0614137
0.0597288
0.0561206
0.0497766
0.0399897
0.0262442
0.00829895
-0.0137427
-0.039381
-0.0676951
-0.0973496
-0.126637
-0.153555
-0.175923
-0.191519
-0.198248
-0.194309
-0.178373
-0.149725
-0.10839
-0.0552068
0.0081584
0.0792534
0.154951
0.231618
0.305336
0.372157
0.428372
0.470776
0.496901
0.505193
0.495135
0.467274
0.423182
0.365331
0.29691
0.221587
0.143253
0.0657599
-0.00732901
-0.0729458
-0.128679
-0.172879
-0.204694
-0.224062
-0.231636
-0.228675
-0.216907
-0.198367
-0.17524
-0.149703
-0.123795
-0.0993006
-0.0776705
-0.0599723
-0.0468711
-0.0386396
-0.0351918
-0.0361369
-0.0408445
-0.0485176
-0.0582666
-0.0691791
-0.0803819
-0.0910923
-0.100656
-0.108574
-0.11451
-0.118296
-0.119916
-0.119495
-0.117266
-0.113547
-0.108714
-0.10317
-0.097319
-0.0915468
-0.0862016
-0.0815813
-0.0779253
-0.0754096
-0.0741465
-0.0741863
-0.0755219
-0.0780935
-0.0817953
-0.0864816
-0.0919728
-0.0980617
-0.104519
-0.111097
-0.117541
-0.123585
-0.128969
-0.13344
-0.136758
-0.13871
-0.139115
-0.137835
-0.13478
-0.129916
-0.123273
-0.114945
-0.105088
-0.093921
-0.0817168
-0.0687914
-0.0554918
-0.0421809
-0.0292204
-0.016954
-0.00569115
0.00430734
0.0128413
0.0197794
0.0250631
0.0287072
0.0307952
0.0314717
0.030931
0.0294041
0.0271431
0.0244068
0.0214449
0.0184851
0.0157218
0.0133067
0.0113438
0.00988622
0.008937
0.00845223
0.00834696
0.00850297
0.00877815
0.00901663
0.00905947
0.00875502
0.00796874
0.00659201
0.00454955
0.00180518
-0.00163423
-0.00571684
-0.010346
-0.0153826
-0.0206492
-0.0259367
-0.0310123
-0.0356291
-0.0395372
-0.0424954
-0.0442831
-0.0447121
-0.0436384
-0.0409711
-0.036681
-0.0308059
-0.0234532
-0.0147994
-0.00508598
0.00538822
0.0162781
0.0272068
0.0377825
0.0476178
0.0563498
0.0636605
0.0692963
0.0730841
0.0749446
0.0749002
0.0730767
0.0696985
0.0650759
0.0595858
0.0536455
0.0476807
0.0420904
0.0372097
0.0332748
0.0303922
0.0285159
0.0274362
0.0267814
0.0260359
0.0245738
0.0217078
0.0167514
0.00909072
-0.00174064
-0.0159876
-0.0336091
-0.0542291
-0.0771102
-0.101154
-0.124933
-0.146755
-0.164756
-0.177026
-0.181747
-0.177344
-0.162637
-0.136979
-0.100359
-0.0534779
0.00223496
0.0646547
0.131054
0.19825
0.262796
0.321212
0.370219
0.406982
0.429313
0.435843
0.42612
0.400649
0.360844
0.308927
0.247757
0.180621
0.110997
0.0423266
-0.0222134
-0.0798941
-0.128579
-0.166814
-0.193865
-0.209702
-0.214933
-0.210711
-0.198601
-0.180442
-0.158203
-0.133844
-0.109197
-0.0858661
-0.0651571
-0.0480314
-0.0350913
-0.0265889
-0.0224569
-0.0223556
-0.0257311
-0.0318802
-0.0400148
-0.0493243
-0.0590297
-0.0684293
-0.0769323
-0.0840822
-0.0895671
-0.0932214
-0.0950173
-0.0950499
-0.0935165
-0.0906933
-0.0869096
-0.082523
-0.0778954
-0.0733714
-0.0692602
-0.0658206
-0.0632506
-0.0616796
-0.0611662
-0.0616982
-0.0631966
-0.0655219
-0.0684842
-0.0718536
-0.0753733
-0.0787731
-0.0817832
-0.0841481
-0.0856384
-0.0860626
-0.0852752
-0.0831837
-0.0797522
-0.0750012
-0.0690063
-0.0618923
-0.053826
-0.0450066
-0.0356549
-0.0260022
-0.0162787
-0.0067035
0.00252523
0.011237
0.0192945
0.0265964
0.0330781
0.03871
0.0434946
0.0474613
0.0506613
0.0531611
0.0550367
0.0563679
0.0572337
0.0577084
0.0578592
0.0577444
0.0574134
0.0569066
0.0562567
0.0554894
0.054625
0.053679
0.0526629
0.0515841
0.0504459
0.049247
0.0479807
0.0466347
0.0451914
0.0436284
0.0419202
0.0400407
0.0379667
0.0356816
0.0331795
0.0304701
0.0275823
0.0245672
0.0215
0.0184807
0.0156323
0.0130978
0.0110351
0.00961015
0.00898855
0.00932675
0.010762
0.013403
0.0173202
0.0225388
0.0290316
0.0367158
0.0454511
0.0550416
0.0652397
0.0757544
0.0862615
0.0964169
0.105872
0.114292
0.121372
0.126857
0.130556
0.132361
0.132249
0.130297
0.126676
0.121642
0.11553
0.108724
0.101638
0.0946813
0.0882222
0.0825572
0.0778757
0.0742345
0.0715388
0.0695353
0.0678193
0.065856
0.0630178
0.0586348
0.0520572
0.0427246
0.0302379
0.0144276
-0.00458908
-0.0263667
-0.0501133
-0.0746985
-0.098692
-0.120432
-0.138124
-0.14996
-0.154255
-0.149597
-0.134981
-0.109937
-0.0746186
-0.0298639
0.0228047
0.0812278
0.142712
0.204183
0.262381
0.314077
0.356305
0.386575
0.403059
0.404732
0.391444
0.363929
0.323745
0.273152
0.214939
0.152216
0.0881997
0.0259914
-0.0316142
-0.0822895
-0.124289
-0.156512
-0.178521
-0.190507
-0.193218
-0.187857
-0.17596
-0.159261
-0.139567
-0.11863
-0.098048
-0.079182
-0.0630984
-0.0505387
-0.0419139
-0.0373201
-0.0365728
-0.039255
-0.0447741
-0.0524222
-0.0614369
-0.0710571
-0.0805724
-0.0893618
-0.0969238
-0.102894
-0.107052
-0.109321
-0.109757
-0.108531
-0.10591
-0.10223
-0.0978709
-0.0932315
-0.0887057
-0.08466
-0.0814152
-0.0792323
-0.0783015
-0.0787357
-0.0805683
-0.0837545
-0.0881759
-0.0936484
-0.0999325
-0.106745
-0.113773
-0.120687
-0.127157
-0.132865
-0.137516
-0.140854
-0.142671
-0.142813
-0.141185
-0.137759
-0.132569
-0.125713
-0.117344
-0.107668
-0.0969288
-0.0854026
-0.0733816
-0.0611634
-0.0490379
-0.0372766
-0.0261219
-0.0157793
-0.00641224
0.00186182
0.00897162
0.0148909
0.0196347
0.0232549
0.025834
0.0274785
0.0283117
0.0284676
0.0280833
0.0272936
0.0262251
0.0249917
0.0236908
0.0224006
0.0211784
0.0200601
0.0190608
0.018176
0.0173844
0.0166508
0.0159297
0.0151695
0.0143162
0.0133183
0.0121296
0.0107132
0.00904418
0.00711103
0.00491707
0.00248021
-0.000167937
-0.00298382
-0.00591435
-0.00889962
-0.0118756
-0.0147766
-0.0175368
-0.0200916
-0.0223777
-0.0243323
-0.0258925
-0.0269936
-0.0275683
-0.0275467
-0.026856
-0.0254234
-0.0231796
-0.0200631
-0.0160272
-0.0110473
-0.00512783
0.00168994
0.00932247
0.0176401
0.0264661
0.0355796
0.0447223
0.0536092
0.0619433
0.069433
0.0758125
0.0808616
0.0844255
0.0864309
0.0868978
0.0859452
0.0837882
0.0807275
0.0771292
0.0733962
0.0699327
0.0671033
0.0651895
0.0643483
0.0645755
0.065679
0.0672667
0.0687504
0.0693715
0.0682462
0.0644321
0.0570107
0.0451842
0.0283761
0.00633107
-0.0207989
-0.0523881
-0.0873019
-0.123899
-0.160078
-0.193363
-0.221043
-0.240336
-0.248594
-0.243513
-0.223342
-0.187083
-0.134641
-0.0669302
0.0140974
0.105489
0.203417
0.303375
0.400444
0.489601
0.566054
0.625572
0.664792
0.681454
0.674572
0.644505
0.592925
0.522692
0.437644
0.34232
0.241637
0.140564
0.0437972
-0.044518
-0.121014
-0.183256
-0.229823
-0.260309
-0.27526
-0.276053
-0.264723
-0.243774
-0.215971
-0.184139
-0.150978
-0.118913
-0.0899664
-0.0656879
-0.0471085
-0.0347427
-0.0286207
-0.0283485
-0.033188
-0.0421496
-0.0540896
-0.0678053
-0.0821223
-0.0959694
-0.108438
-0.118824
-0.126653
-0.131684
-0.133906
-0.133515
-0.130877
-0.126499
-0.120975
-0.114947
-0.109059
-0.103916
-0.100049
-0.0978839
-0.0977207
-0.0997198
-0.103895
-0.110117
-0.118119
-0.127516
-0.137827
-0.148497
-0.158929
-0.168514
-0.176667
-0.182849
-0.186606
-0.187581
-0.185543
-0.180394
-0.172174
-0.161059
-0.147354
-0.131472
-0.113914
-0.0952424
-0.0760493
-0.0569275
-0.0384401
-0.0210942
-0.00531831
0.00855382
0.0202936
0.0297808
0.0370005
0.0420345
0.0450469
0.0462678
0.0459736
0.0444672
0.0420589
0.0390493
0.0357146
0.0322953
0.0289885
0.0259436
0.0232614
0.020996
0.0191581
0.0177214
0.0166284
0.0157977
0.0151312
0.0145208
0.0138552
0.0130261
0.0119342
0.0104944
0.00864131
0.00633354
0.00355769
0.000331531
-0.00329397
-0.0072339
-0.0113703
-0.0155547
-0.0196126
-0.02335
-0.0265611
-0.0290382
-0.0305822
-0.0310139
-0.030185
-0.0279888
-0.0243694
-0.0193288
-0.0129316
-0.00530634
0.00335623
0.0128089
0.0227571
0.0328719
0.0428053
0.0522082
0.0607502
0.0681388
0.0741382
0.0785861
0.0814058
0.082615
0.082327
0.0807459
0.0781547
0.0748953
0.071343
0.0678742
0.0648318
0.0624879
0.0610091
0.0604258
0.0606095
0.0612616
0.0619156
0.0619558
0.0606527
0.0572146
0.0508546
0.0408676
0.0267145
0.00810504
-0.0149271
-0.0419642
-0.0721684
-0.104275
-0.13662
-0.167205
-0.1938
-0.214079
-0.225779
-0.226875
-0.215765
-0.191432
-0.153587
-0.102764
-0.0403641
0.031364
0.109413
0.190172
0.269634
0.343653
0.408219
0.459741
0.495303
0.512875
0.511463
0.491178
0.453223
0.399796
0.333923
0.259233
0.1797
0.099365
0.0220751
-0.0487509
-0.110313
-0.160559
-0.19826
-0.223011
-0.235191
-0.235857
-0.226617
-0.209467
-0.186629
-0.160382
-0.132915
-0.106195
-0.0818728
-0.0612104
-0.0450526
-0.0338225
-0.0275482
-0.0259112
-0.0283124
-0.0339486
-0.0418925
-0.0511719
-0.0608424
-0.0700493
-0.0780766
-0.084381
-0.088611
-0.0906107
-0.0904111
-0.088209
-0.084338
-0.0792332
-0.0733919
-0.067335
-0.0615692
-0.0565534
-0.0526706
-0.0502066
-0.0493358
-0.0501146
-0.0524822
-0.0562679
-0.0612047
-0.0669471
-0.0730932
-0.0792083
-0.0848505
-0.0895946
-0.0930556
-0.0949086
-0.0949053
-0.092886
-0.0887868
-0.0826416
-0.0745783
-0.0648107
-0.0536262
-0.0413698
-0.0284248
-0.0151936
-0.00207698
0.0105451
0.0223309
0.0329914
0.0423013
0.050106
0.0563244
0.0609474
0.0640335
0.0657003
0.0661135
0.0654748
0.064008
0.0619452
0.0595133
0.0569219
0.0543524
0.0519495
0.0498155
0.0480064
0.0465321
0.0453579
0.0444103
0.043584
0.0427524
0.0417781
0.0405265
0.038878
0.0367409
0.0340622
0.0308369
0.0271139
0.0229983
0.0186497
0.0142761
0.0101241
0.0064647
0.00357653
0.00172734
0.00115451
0.00204659
0.00452703
0.00864154
0.0143503
0.0215258
0.0299568
0.0393586
0.0493883
0.0596655
0.0697952
0.0793927
0.088108
0.0956471
0.10179
0.106402
0.109438
0.110942
0.111032
0.109889
0.10773
0.104781
0.101251
0.0973018
0.0930265
0.0884288
0.0834154
0.0777969
0.0713013
0.0635991
0.0543402
0.0432
0.0299315
0.0144197
-0.00326804
-0.022839
-0.0437471
-0.0651834
-0.0860893
-0.105194
-0.12108
-0.132265
-0.137311
-0.134939
-0.124153
-0.104349
-0.0754153
-0.0378006
0.00745313
0.0587229
0.113863
0.170311
0.225234
0.275711
0.318929
0.352383
0.374066
0.382618
0.377434
0.358713
0.327443
0.285329
0.23466
0.178147
0.118723
0.0593474
0.00280511
-0.0484572
-0.0924681
-0.127822
-0.153727
-0.170002
-0.177035
-0.17571
-0.167299
-0.153349
-0.135552
-0.115629
-0.0952124
-0.075758
-0.0584715
-0.0442617
-0.033718
-0.0271115
-0.0244161
-0.0253467
-0.02941
-0.0359622
-0.04427
-0.05357
-0.0631232
-0.072261
-0.0804224
-0.0871788
-0.0922486
-0.0955
-0.0969447
-0.0967228
-0.0950816
-0.0923494
-0.0889072
-0.08516
-0.0815082
-0.0783228
-0.0759233
-0.0745605
-0.0744038
-0.0755348
-0.0779447
-0.0815376
-0.0861386
-0.0915047
-0.0973403
-0.103314
-0.109077
-0.114282
-0.118603
-0.12175
-0.123485
-0.123631
-0.122085
-0.118814
-0.113861
-0.10734
-0.0994276
-0.0903511
-0.0803797
-0.0698086
-0.0589449
-0.0480934
-0.0375432
-0.0275551
-0.0183521
-0.0101114
-0.00295883
0.00303277
0.00784365
0.0115038
0.0140871
0.0157044
0.0164933
0.0166087
0.0162124
0.0154624
0.0145036
0.0134603
0.0124292
0.0114758
0.0106314
0.00989424
0.00923088
0.00858095
0.00786306
0.00698233
0.00583894
0.00433732
0.00239545
-4.62925e-005
-0.00301725
-0.00651021
-0.0104771
-0.0148273
-0.0194286
-0.0241112
-0.0286749
-0.0328985
-0.0365516
-0.0394085
-0.0412619
-0.0419372
-0.0413048
-0.0392903
-0.0358814
-0.0311307
-0.0251545
-0.018126
-0.0102655
-0.00182611
0.00692262
0.0157129
0.0242965
0.0324612
0.0400439
0.0469402
0.0531072
0.0585616
0.0633706
0.0676371
0.0714801
0.0750103
0.0783051
0.0813826
0.0841793
0.0865327
0.0881718
0.0887176
0.0876957
0.0845615
0.0787381
0.0696667
0.0568659
0.0399977
0.0189342
-0.00617956
-0.0348734
-0.0663179
-0.0993123
-0.132303
-0.16343
-0.190611
-0.211654
-0.224394
-0.226856
-0.217415
-0.194962
-0.159046
-0.109981
-0.0489125
0.0221759
0.10052
0.182695
0.264801
0.342689
0.412235
0.469614
0.511578
0.535685
0.540492
0.525656
0.491965
0.441281
0.376399
0.300842
0.218608
0.13389
0.0507995
-0.0268994
-0.0960033
-0.154037
-0.199358
-0.231188
-0.249596
-0.255409
-0.250095
-0.235604
-0.214195
-0.188262
-0.16017
-0.132104
-0.105954
-0.0832311
-0.0650127
-0.0519287
-0.0441761
-0.0415602
-0.0435574
-0.0493918
-0.0581192
-0.0687123
-0.0801412
-0.091444
-0.101786
-0.110501
-0.117122
-0.121387
-0.12324
-0.122814
-0.1204
-0.116418
-0.111375
-0.105822
-0.100319
-0.0953947
-0.0915149
-0.0890561
-0.0882875
-0.089359
-0.0922977
-0.0970102
-0.103293
-0.110846
-0.119293
-0.128202
-0.13711
-0.145549
-0.153065
-0.159241
-0.16372
-0.166212
-0.166512
-0.164502
-0.160158
-0.153539
-0.144789
-0.134123
-0.121816
-0.108188
-0.0935882
-0.0783808
-0.0629301
-0.0475867
-0.0326759
-0.0184882
-0.00527157
0.00677375
0.0174982
0.0268041
0.034645
0.0410232
0.0459859
0.0496205
0.0520477
0.0534151
0.053889
0.0536463
0.0528659
0.0517209
0.0503701
0.0489516
0.0475763
0.0463241
0.0452403
0.044336
0.0435885
0.0429454
0.0423303
0.0416498
0.0408027
0.0396898
0.0382239
0.0363398
0.0340024
0.0312142
0.0280193
0.0245052
0.0208013
0.0170741
0.0135192
0.0103514
0.00779104
0.00605102
0.00532168
0.00575725
0.00746349
0.010488
0.0148142
0.0203588
0.0269747
0.0344577
0.042558
0.0509958
0.0594786
0.067722
0.0754684
0.0825065
0.0886863
0.0939303
0.0982393
0.101691
0.104433
0.106667
0.108628
0.11056
0.112685
0.115174
0.118114
0.121486
0.125145
0.128804
0.132042
0.134307
0.134951
0.13326
0.128513
0.12004
0.107294
0.0899196
0.0678299
0.0412622
0.0108269
-0.0224675
-0.0572165
-0.0916527
-0.123713
-0.151138
-0.171602
-0.182869
-0.182959
-0.170322
-0.143997
-0.103751
-0.0501713
0.0152855
0.0903125
0.171834
0.256151
0.339153
0.416564
0.484223
0.538373
0.575924
0.59468
0.593502
0.572391
0.532489
0.475991
0.405985
0.326219
0.240842
0.154111
0.0701172
-0.00746782
-0.0756003
-0.132011
-0.175291
-0.204907
-0.221161
-0.225089
-0.218331
-0.20296
-0.181308
-0.155789
-0.128736
-0.102263
-0.0781523
-0.0577827
-0.0420885
-0.0315549
-0.0262437
-0.0258436
-0.02974
-0.037096
-0.0469386
-0.0582433
-0.0700114
-0.0813367
-0.091457
-0.0997903
-0.105955
-0.109772
-0.111258
-0.110601
-0.108132
-0.104286
-0.0995652
-0.0944969
-0.0895979
-0.0853398
-0.0821215
-0.0802482
-0.0799169
-0.0812103
-0.0840963
-0.0884346
-0.0939886
-0.100442
-0.107416
-0.114497
-0.121251
-0.127253
-0.132106
-0.135459
-0.137028
-0.136603
-0.134064
-0.129381
-0.122613
-0.11391
-0.103497
-0.0916676
-0.0787642
-0.0651647
-0.0512617
-0.0374449
-0.0240833
-0.0115099
-8.05311e-006
0.0101979
0.0189492
0.0261552
0.0317924
0.0359001
0.0385734
0.0399535
0.0402172
0.0395645
0.0382066
0.0363543
0.0342066
0.0319417
0.0297088
0.0276231
0.0257613
0.0241614
0.0228231
0.0217114
0.0207611
0.0198837
0.0189746
0.0179221
0.0166154
0.0149533
0.012852
0.0102523
0.00712452
0.00347331
-0.000660345
-0.00519834
-0.0100268
-0.014999
-0.0199407
-0.0246561
-0.0289361
-0.0325676
-0.0353433
-0.0370723
-0.0375906
-0.0367711
-0.0345329
-0.0308488
-0.0257505
-0.0193322
-0.0117501
-0.00321972
0.00599097
0.0155711
0.02518
0.034463
0.0430691
0.0506704
0.0569809
0.0617753
0.0649046
0.0663085
0.066023
0.0641812
0.0610083
0.056808
0.0519426
0.046806
0.0417916
0.0372562
0.0334837
0.0306503
0.0287955
0.027801
0.0273826
0.0270955
0.0263565
0.0244821
0.0207422
0.0144277
0.00492605
-0.00819932
-0.0251323
-0.045738
-0.069514
-0.0955661
-0.122613
-0.149028
-0.172906
-0.19218
-0.204746
-0.208626
-0.20213
-0.184018
-0.153651
-0.111102
-0.0572302
0.00630334
0.0770764
0.152013
0.227551
0.299852
0.365057
0.419551
0.460215
0.484666
0.491426
0.480039
0.451101
0.406219
0.347882
0.279279
0.204066
0.126106
0.0492119
-0.0230986
-0.0878085
-0.142559
-0.185748
-0.216571
-0.235001
-0.24172
-0.238008
-0.2256
-0.206532
-0.182982
-0.157114
-0.130948
-0.106249
-0.0844462
-0.0665886
-0.0533239
-0.0449111
-0.0412553
-0.0419606
-0.0463966
-0.0537699
-0.0631982
-0.0737791
-0.0846513
-0.0950448
-0.104319
-0.111988
-0.11773
-0.12139
-0.122968
-0.122599
-0.120534
-0.117108
-0.112713
-0.107767
-0.102688
-0.0978717
-0.0936678
-0.0903655
-0.0881807
-0.0872494
-0.0876236
-0.089273
-0.092089
-0.0958926
-0.100445
-0.105462
-0.110623
-0.115595
-0.120042
-0.123642
-0.126105
-0.127183
-0.126683
-0.124478
-0.120507
-0.114786
-0.107399
-0.0985003
-0.088302
-0.0770672
-0.0650958
-0.0527103
-0.040241
-0.0280106
-0.0163203
-0.00543715
0.00441652
0.0130703
0.0204103
0.0263808
0.0309821
0.0342668
0.0363329
0.0373154
0.0373771
0.0366981
0.0354664
0.0338675
0.0320762
0.0302487
0.0285165
0.0269818
0.0257144
0.02475
0.024091
0.0237077
0.023542
0.0235119
0.0235173
0.023447
0.0231864
0.0226256
0.0216672
0.0202349
0.0182796
0.0157861
0.0127769
0.0093145
0.00550187
0.00147985
-0.00257742
-0.00646943
-0.00997845
-0.0128802
-0.0149557
-0.0160039
-0.0158535
-0.0143745
-0.0114877
-0.00717172
-0.00146778
0.00551961
0.0136249
0.0226271
0.0322591
0.0422194
0.0521859
0.0618318
0.0708415
0.0789268
0.0858418
0.0913961
0.0954648
0.0979962
0.099014
0.0986165
0.0969705
0.0943009
0.0908749
0.0869835
0.0829185
0.0789479
0.07529
0.0720883
0.0693903
0.0671299
0.0651192
0.0630484
0.0604982
0.0569641
0.0518931
0.044732
0.034985
0.0222757
0.00641102
-0.0125606
-0.0343019
-0.0581559
-0.0831387
-0.107958
-0.131059
-0.150706
-0.165084
-0.172422
-0.171139
-0.159983
-0.138169
-0.105494
-0.0624179
-0.0101046
0.0495923
0.114198
0.180737
0.245911
0.306301
0.358603
0.399863
0.42769
0.440439
0.437333
0.418526
0.385085
0.338914
0.282603
0.219241
0.152192
0.0848596
0.0204689
-0.0381338
-0.0886365
-0.12937
-0.159363
-0.178342
-0.18669
-0.185354
-0.175738
-0.15956
-0.138716
-0.115138
-0.0906733
-0.0669751
-0.0454246
-0.0270771
-0.0126375
-0.00246158
0.00342024
0.00525996
0.00353662
-0.00110712
-0.00793067
-0.0161586
-0.0250376
-0.0338833
-0.0421162
-0.0492844
-0.055075
-0.0593133
-0.0619529
-0.0630581
-0.0627816
-0.0613398
-0.0589876
-0.0559952
-0.0526283
-0.0491329
-0.045724
-0.0425797
-0.0398394
-0.037605
-0.0359448
-0.0348989
-0.0344843
-0.0347
-0.035531
-0.0369495
-0.0389164
-0.0413793
-0.044271
-0.0475065
-0.0509803
-0.0545652
-0.0581121
-0.061452
-0.0644
-0.0667625
-0.0683453
-0.068965
-0.06846
-0.0667023
-0.0636087
-0.0591493
-0.053354
-0.0463148
-0.0381842
-0.0291696
-0.0195232
-0.00952865
0.000514531
0.0103081
0.0195722
0.0280608
0.0355749
0.0419722
0.0471719
0.0511562
0.053966
0.0556942
0.0564749
0.0564708
0.0558597
0.054821
0.0535234
0.0521141
0.0507114
0.0493993
0.048226
0.0472047
0.0463164
0.045516
0.0447383
0.0439048
0.0429316
0.0417353
0.0402396
0.0383794
0.0361057
0.0333877
0.0302153
0.0266004
0.0225777
0.0182044
0.0135607
0.00874859
0.00389064
-0.000871848
-0.00538162
-0.00946912
-0.0129572
-0.0156673
-0.0174263
-0.018075
-0.0174769
-0.0155281
-0.0121667
-0.00738103
-0.00121747
0.0062153
0.0147443
0.0241344
0.0340942
0.0442869
0.054344
0.0638842
0.0725334
0.0799469
0.0858316
0.0899658
0.0922164
0.0925501
0.0910394
0.087859
0.0832763
0.0776317
0.0713125
0.0647202
0.0582341
0.0521732
0.046761
0.0420954
0.0381276
0.034654
0.0313223
0.0276535
0.0230807
0.0170018
0.00884375
-0.00186552
-0.0154245
-0.0318904
-0.0510238
-0.0722519
-0.094657
-0.116994
-0.137739
-0.155171
-0.167479
-0.172895
-0.169839
-0.15707
-0.133823
-0.0999273
-0.0558887
-0.00292747
0.0570394
0.121472
0.187337
0.251286
0.309874
0.359792
0.398111
0.422496
0.431386
0.424117
0.400975
0.363173
0.312764
0.252483
0.185547
0.115423
0.0455885
-0.0206981
-0.0805941
-0.131831
-0.172817
-0.202689
-0.221304
-0.229184
-0.227418
-0.217542
-0.201385
-0.18093
-0.158163
-0.134949
-0.112924
-0.0934194
-0.077416
-0.0655228
-0.057988
-0.0547313
-0.0553945
-0.0594034
-0.0660365
-0.0744941
-0.0839628
-0.0936719
-0.102939
-0.111204
-0.118048
-0.1232
-0.126539
-0.128077
-0.12794
-0.126349
-0.123592
-0.119998
-0.115916
-0.11169
-0.107646
-0.104079
-0.10124
-0.099333
-0.0985103
-0.0988739
-0.100475
-0.103315
-0.10735
-0.11249
-0.118601
-0.125511
-0.133007
-0.140842
-0.148737
-0.15639
-0.163479
-0.169677
-0.17466
-0.178122
-0.179789
-0.179433
-0.176886
-0.172051
-0.164909
-0.155525
-0.14405
-0.130711
-0.115811
-0.0997083
-0.082805
-0.0655282
-0.0483105
-0.0315708
-0.0156967
-0.00102889
0.0121518
0.0236334
0.0332779
0.0410228
0.0468784
0.0509225
0.0532913
0.0541692
0.053776
0.0523542
0.0501558
0.0474293
0.0444085
0.041302
0.0382852
0.0354944
0.0330228
0.0309197
0.0291918
0.0278073
0.0267012
0.0257835
0.0249484
0.0240841
0.0230829
0.0218516
0.0203199
0.0184482
0.0162329
0.0137096
0.0109535
0.00807726
0.00522651
0.00257264
0.000303819
-0.00138559
-0.00230654
-0.00228708
-0.00118385
0.00110766
0.00464453
0.00943027
0.0154116
0.0224784
0.0304673
0.0391683
0.0483349
0.0576967
0.0669744
0.0758952
0.0842093
0.0917048
0.0982211
0.103658
0.107985
0.111235
0.11351
0.114962
0.115784
0.116186
0.116372
0.116516
0.11673
0.117047
0.117393
0.11758
0.117295
0.116116
0.113521
0.10893
0.101749
0.0914238
0.0775083
0.0597322
0.0380673
0.0127852
-0.0155
-0.045811
-0.0768137
-0.106855
-0.134031
-0.156292
-0.17157
-0.177929
-0.173722
-0.157755
-0.129423
-0.0888287
-0.0368466
0.0248552
0.093861
0.167112
0.241071
0.311934
0.375881
0.429333
0.469211
0.49316
0.499725
0.488458
0.45995
0.415786
0.35842
0.290996
0.21711
0.140568
0.0651196
-0.00577042
-0.0691305
-0.122633
-0.164694
-0.19451
-0.212042
-0.217946
-0.213472
-0.200321
-0.180497
-0.156151
-0.129434
-0.102364
-0.0767162
-0.0539482
-0.0351444
-0.020998
-0.011817
-0.00755432
-0.00785642
-0.0121247
-0.0195848
-0.0293578
-0.0405289
-0.05221
-0.063592
-0.0739868
-0.0828562
-0.0898283
-0.0947024
-0.0974423
-0.098162
-0.0971024
-0.0946046
-0.0910791
-0.0869742
-0.0827447
-0.0788232
-0.0755943
-0.0733734
-0.07239
-0.0727775
-0.0745677
-0.077691
-0.081983
-0.0871945
-0.0930066
-0.0990494
-0.104922
-0.110217
-0.114537
-0.117524
-0.118871
-0.118345
-0.115794
-0.111157
-0.104469
-0.0958555
-0.0855263
-0.0737656
-0.0609149
-0.0473559
-0.03349
-0.0197186
-0.00642255
0.00605485
0.0174234
0.0274572
0.036002
0.0429784
0.0483799
0.0522682
0.054764
0.0560354
0.0562847
0.0557339
0.0546099
0.0531309
0.0514943
0.0498658
0.0483728
0.0470986
0.0460815
0.0453151
0.0447532
0.0443153
0.0438953
0.0433715
0.0426171
0.0415113
0.0399503
0.0378571
0.0351904
0.0319507
0.028185
0.0239881
0.0195013
0.0149078
0.0104251
0.00629452
0.00276848
9.58731e-005
-0.00149351
-0.00180463
-0.00069193
0.00192801
0.0060667
0.0116579
0.0185564
0.0265415
0.0353258
0.0445685
0.0538934
0.0629091
0.0712328
0.0785128
0.0844512
0.088824
0.0914955
0.0924289
0.0916885
0.0894354
0.0859151
0.081438
0.0763526
0.0710153
0.0657559
0.0608433
0.0564542
0.0526466
0.0493428
0.046323
0.0432329
0.0396054
0.0348969
0.0285368
0.0199872
0.00880917
-0.00527019
-0.022295
-0.0420294
-0.0639236
-0.0871024
-0.110381
-0.132309
-0.151246
-0.165461
-0.173252
-0.173087
-0.163739
-0.14442
-0.114893
-0.0755506
-0.0274581
0.0276603
0.0874838
0.149211
0.209724
0.265784
0.314257
0.352331
0.37773
0.388877
0.385022
0.366294
0.333695
0.289018
0.234714
0.173708
0.109191
0.0443985
-0.0176021
-0.074098
-0.122881
-0.162354
-0.191578
-0.210286
-0.218833
-0.21812
-0.209484
-0.19457
-0.1752
-0.153233
-0.130451
-0.108454
-0.0885779
-0.0718479
-0.058946
-0.0502129
-0.0456686
-0.0450521
-0.0478741
-0.0534789
-0.0611084
-0.0699655
-0.0792719
-0.088317
-0.0964967
-0.10334
-0.108525
-0.11188
-0.113379
-0.113124
-0.111326
-0.10828
-0.104334
-0.0998643
-0.095247
-0.0908372
-0.086948
-0.0838357
-0.0816893
-0.0806246
-0.0806826
-0.0818312
-0.0839709
-0.0869428
-0.0905385
-0.094512
-0.098592
-0.102495
-0.105939
-0.108656
-0.110402
-0.110971
-0.110202
-0.107987
-0.104276
-0.0990792
-0.0924685
-0.0845724
-0.0755723
-0.0656939
-0.0551979
-0.0443676
-0.033497
-0.0228772
-0.0127834
-0.00346319
0.00487411
0.0120661
0.018003
0.0226309
0.025952
0.0280217
0.0289429
0.0288585
0.027941
0.0263815
0.0243774
0.0221207
0.0197865
0.0175235
0.0154457
0.0136277
0.0121021
0.0108599
0.00985488
0.00900964
0.00822448
0.00738799
0.00638861
0.00512632
0.00352364
0.0015352
-0.000844948
-0.00357888
-0.00658347
-0.00973251
-0.0128621
-0.0157795
-0.0182737
-0.0201289
-0.0211385
-0.0211195
-0.0199253
-0.017458
-0.0136771
-0.00860469
-0.0023281
0.0050031
0.0131831
0.0219601
0.0310498
0.0401513
0.0489645
0.0572085
0.0646389
0.071063
0.0763522
0.0804507
0.0833779
0.0852262
0.0861525
0.0863633
0.0860955
0.085592
0.0850748
0.0847168
0.0846147
0.084766
0.0850511
0.0852245
0.0849162
0.083646
0.0808511
0.0759262
0.0682769
0.057382
0.042862
0.0245476
0.00254375
-0.0227191
-0.0504521
-0.0795002
-0.108363
-0.13525
-0.158165
-0.175024
-0.183797
-0.182662
-0.170172
-0.145406
-0.108102
-0.0587521
0.00134839
0.0701108
0.144725
0.221793
0.297522
0.367955
0.429241
0.477899
0.511073
0.526749
0.523907
0.502605
0.463976
0.410147
0.344078
0.26935
0.189908
0.109783
0.0328314
-0.0375099
-0.0984152
-0.147811
-0.184452
-0.207934
-0.218648
-0.217687
-0.206708
-0.187774
-0.163184
-0.135303
-0.106406
-0.0785435
-0.0534411
-0.0324247
-0.0163858
-0.00577714
-0.000637684
-0.000641616
-0.00516517
-0.0133645
-0.0242581
-0.0368078
-0.0499928
-0.0628734
-0.0746411
-0.0846532
-0.0924533
-0.0977764
-0.100542
-0.100835
-0.0988837
-0.095024
-0.0896707
-0.0832826
-0.0763316
-0.0692755
-0.0625346
-0.056474
-0.0513907
-0.0475056
-0.0449605
-0.0438185
-0.0440675
-0.0456265
-0.0483539
-0.0520562
-0.0564983
-0.061414
-0.0665165
-0.0715093
-0.0760968
-0.0799947
-0.0829407
-0.0847045
-0.0850969
-0.0839789
-0.0812681
-0.0769446
-0.0710532
-0.0637037
-0.0550677
-0.0453718
-0.0348887
-0.0239247
-0.0128053
-0.00186004
0.0085936
0.0182652
0.0269052
0.0343154
0.0403574
0.0449566
0.0481031
0.0498484
0.0502992
0.0496088
0.0479658
0.045582
0.0426796
0.0394786
0.0361847
0.0329796
0.0300117
0.0273901
0.0251804
0.0234035
0.0220366
0.0210169
0.020248
0.0196078
0.0189589
0.0181597
0.0170762
0.0155937
0.013628
0.0111342
0.00811437
0.00462073
0.000757
-0.00332475
-0.00743051
-0.0113341
-0.0147899
-0.0175474
-0.0193676
-0.0200392
-0.0193939
-0.0173202
-0.0137733
-0.00878201
-0.00245007
0.00504693
0.0134699
0.0225293
0.0319018
0.0412497
0.0502422
0.0585753
0.0659909
0.0722919
0.0773528
0.0811241
0.0836314
0.0849665
0.0852737
0.0847305
0.0835242
0.0818265
0.0797682
0.0774158
0.074753
0.0716687
0.0679545
0.0633124
0.0573745
0.0497341
0.0399877
0.0277855
0.012888
-0.00477778
-0.0250654
-0.0475666
-0.0715847
-0.096129
-0.119935
-0.141511
-0.159216
-0.171355
-0.176307
-0.172654
-0.159318
-0.135691
-0.101737
-0.0580695
-0.00597491
0.0526055
0.115154
0.178705
0.240022
0.295805
0.34292
0.378625
0.400776
0.407988
0.39975
0.376457
0.339387
0.2906
0.232784
0.169054
0.10273
0.0371048
-0.0247669
-0.0802565
-0.127302
-0.164501
-0.191146
-0.207213
-0.2133
-0.21053
-0.200422
-0.184759
-0.165436
-0.144333
-0.123185
-0.103495
-0.0864563
-0.0729163
-0.0633619
-0.0579337
-0.0564609
-0.0585132
-0.0634642
-0.0705595
-0.0789853
-0.0879325
-0.0966523
-0.104501
-0.110974
-0.115724
-0.118568
-0.119485
-0.118603
-0.116173
-0.112548
-0.108152
-0.103444
-0.0988954
-0.0949537
-0.0920213
-0.0904329
-0.0904377
-0.0921875
-0.0957291
-0.101002
-0.107839
-0.115976
-0.125062
-0.134673
-0.144333
-0.153535
-0.161764
-0.168521
-0.17335
-0.17586
-0.175743
-0.172796
-0.16693
-0.158176
-0.146688
-0.132735
-0.116687
-0.0990011
-0.0801962
-0.0608274
-0.041459
-0.0226369
-0.00486299
0.0114275
0.0258837
0.0382517
0.0483808
0.0562239
0.061832
0.0653441
0.0669723
0.0669852
0.0656883
0.0634057
0.0604614
0.0571629
0.053787
0.0505689
0.0476941
0.0452935
0.0434423
0.0421603
0.0414166
0.0411354
0.0412035
0.0414804
0.0418086
0.0420244
0.0419702
0.0415048
0.0405145
0.0389219
0.0366932
0.0338435
0.0304389
0.026596
0.0224783
0.0182889
0.0142614
0.0106476
0.00770288
0.00567199
0.00477307
0.00518327
0.00702598
0.0103606
0.0151761
0.0213885
0.0288427
0.0373198
0.0465477
0.0562163
0.0659956
0.0755551
0.0845845
0.0928133
0.100027
0.106082
0.110911
0.114526
0.117016
0.11853
0.119265
0.119436
0.119257
0.118902
0.118483
0.118021
0.117426
0.116487
0.114869
0.112123
0.107716
0.101067
0.0915985
0.0788
0.062294
0.0419059
0.0177274
-0.00983133
-0.040008
-0.0716789
-0.103378
-0.133351
-0.159638
-0.180185
-0.192991
-0.196251
-0.188526
-0.168884
-0.137035
-0.0934184
-0.0392492
0.0234954
0.0921496
0.163493
0.233936
0.299752
0.357322
0.403398
0.435331
0.451268
0.45029
0.432476
0.398891
0.3515
0.293016
0.226692
0.15609
0.0848323
0.0163608
-0.0462721
-0.100573
-0.144728
-0.177659
-0.199037
-0.209229
-0.209218
-0.200472
-0.184809
-0.164241
-0.140827
-0.116538
-0.0931358
-0.0720906
-0.0545168
-0.0411446
-0.0323197
-0.0280281
-0.0279425
-0.031484
-0.0378944
-0.0463106
-0.0558396
-0.0656248
-0.074904
-0.0830531
-0.0896161
-0.0943193
-0.0970724
-0.0979547
-0.0971927
-0.0951273
-0.0921772
-0.088799
-0.0854486
-0.0825446
-0.0804377
-0.0793868
-0.0795423
-0.0809388
-0.0834955
-0.0870246
-0.0912466
-0.095811
-0.100321
-0.104361
-0.107523
-0.109433
-0.109775
-0.108311
-0.104894
-0.0994763
-0.0921146
-0.082963
-0.072265
-0.060339
-0.0475593
-0.0343349
-0.0210868
-0.00822488
0.00387297
0.0148797
0.0245336
0.0326488
0.0391204
0.0439245
0.0471136
0.0488081
0.0491838
0.0484572
0.0468702
0.0446736
0.0421123
0.0394114
0.0367655
0.0343302
0.0322167
0.0304898
0.0291681
0.0282276
0.0276067
0.0272133
0.0269328
0.0266373
0.0261945
0.0254767
0.0243697
0.0227804
0.0206437
0.0179281
0.0146398
0.0108249
0.00657051
0.00200282
-0.00271603
-0.00739361
-0.0118148
-0.0157515
-0.0189731
-0.0212595
-0.0224134
-0.0222728
-0.0207236
-0.0177086
-0.0132362
-0.00738381
-0.00029868
0.007806
0.0166595
0.025946
0.0353213
0.0444317
0.0529354
0.060524
0.0669426
0.0720077
0.0756201
0.0777722
0.0785492
0.0781214
0.0767309
0.0746692
0.0722502
0.0697782
0.0675137
0.0656397
0.0642308
0.0632298
0.0624321
0.0614839
0.0598928
0.0570556
0.0523
0.0449416
0.0343517
0.0200327
0.00169513
-0.0206707
-0.0467343
-0.0757848
-0.106716
-0.13804
-0.167944
-0.194366
-0.21512
-0.228035
-0.231122
-0.22274
-0.201758
-0.167703
-0.120861
-0.062338
0.00593581
0.0812698
0.160337
0.239356
0.314322
0.381265
0.436523
0.476999
0.500383
0.505326
0.491534
0.459795
0.411911
0.350568
0.279135
0.201422
0.121419
0.0430211
-0.0302051
-0.0952347
-0.149736
-0.192166
-0.221804
-0.238721
-0.243711
-0.238162
-0.223915
-0.203099
-0.177967
-0.150742
-0.123477
-0.0979537
-0.0755982
-0.0574393
-0.0440938
-0.035782
-0.0323664
-0.0334087
-0.0382392
-0.0460308
-0.0558745
-0.0668485
-0.07808
-0.0887943
-0.0983522
-0.106273
-0.112245
-0.116125
-0.117924
-0.117793
-0.115991
-0.11286
-0.108796
-0.104214
-0.0995205
-0.0950907
-0.0912444
-0.0882303
-0.0862151
-0.0852772
-0.0854067
-0.0865099
-0.0884186
-0.0909034
-0.0936892
-0.0964737
-0.0989461
-0.100806
-0.10178
-0.101641
-0.100212
-0.0973869
-0.0931242
-0.087454
-0.0804725
-0.0723352
-0.0632463
-0.0534463
-0.0431982
-0.0327726
-0.0224337
-0.0124268
-0.00296775
0.00576552
0.0136376
0.020558
0.0264802
0.0313983
0.0353418
0.038369
0.0405592
0.0420057
0.0428081
0.0430662
0.0428754
0.0423227
0.0414843
0.0404253
0.0391992
0.0378487
0.0364074
0.0349009
0.0333483
0.0317629
0.030153
0.0285223
0.0268692
0.0251872
0.0234642
0.0216825
0.0198189
0.0178459
0.0157329
0.0134482
0.0109618
0.00824849
0.00529147
0.00208579
-0.00135816
-0.0050116
-0.00882506
-0.0127269
-0.0166229
-0.0203971
-0.0239142
-0.0270229
-0.0295607
-0.0313601
-0.0322558
-0.0320925
-0.0307331
-0.0280677
-0.0240217
-0.0185636
-0.0117114
-0.00353775
0.00582744
0.0161965
0.0273267
0.0389253
0.050659
0.0621654
0.0730676
0.0829919
0.0915856
0.0985372
0.103595
0.106586
0.107426
0.106134
0.102835
0.0977566
0.0912191
0.0836185
0.0754014
0.0670337
0.0589647
0.051589
0.0452093
0.0400031
0.0359972
0.0330526
0.0308641
0.0289741
0.0268038
0.0236996
0.0189925
0.0120672
0.00243643
-0.0101874
-0.0258275
-0.0441942
-0.0646564
-0.0862401
-0.107657
-0.127362
-0.143643
-0.154738
-0.158963
-0.154859
-0.141334
-0.11779
-0.084224
-0.0412956
0.00965707
0.0666518
0.127151
0.188203
0.246623
0.29921
0.342966
0.375321
0.394323
0.398786
0.388384
0.36367
0.326036
0.277601
0.221054
0.159451
0.0959994
0.0338381
-0.0241615
-0.0755661
-0.118506
-0.151754
-0.174746
-0.187567
-0.190878
-0.185824
-0.17391
-0.156867
-0.136521
-0.114659
-0.0929272
-0.0727389
-0.0552122
-0.0411358
-0.0309596
-0.0248097
-0.0225225
-0.023694
-0.0277387
-0.0339529
-0.0415776
-0.0498565
-0.0580871
-0.0656601
-0.0720892
-0.0770278
-0.0802748
-0.0817705
-0.0815836
-0.0798922
-0.0769596
-0.0731087
-0.0686948
-0.0640807
-0.0596137
-0.0556065
-0.0523218
-0.049962
-0.0486619
-0.048487
-0.0494343
-0.0514362
-0.054367
-0.0580512
-0.0622733
-0.0667878
-0.0713309
-0.0756311
-0.079421
-0.0824479
-0.0844845
-0.0853386
-0.0848612
-0.0829537
-0.0795727
-0.0747326
-0.0685058
-0.0610196
-0.0524512
-0.0430194
-0.0329742
-0.0225852
-0.0121286
-0.00187449
0.00792515
0.0170472
0.0253057
0.0325574
0.0387054
0.0436986
0.0475301
0.0502326
0.0518724
0.0525428
0.0523567
0.0514396
0.0499229
0.0479383
0.0456135
0.0430684
0.0404127
0.0377447
0.0351503
0.0327023
0.0304605
0.0284713
0.0267669
0.0253648
0.0242669
0.023459
0.0229094
0.0225697
0.0223747
0.0222446
0.0220874
0.0218028
0.0212874
0.0204402
0.0191696
0.0173994
0.0150759
0.0121733
0.0086992
0.00469737
0.000250025
-0.00452243
-0.00946352
-0.0143849
-0.0190723
-0.0232941
-0.0268099
-0.0293823
-0.0307875
-0.0308276
-0.029342
-0.0262183
-0.0214012
-0.0149002
-0.00679477
0.00276421
0.013555
0.0252897
0.0376225
0.0501609
0.0624808
0.0741442
0.0847189
0.0938003
0.101034
0.106135
0.108911
0.109274
0.107256
0.103007
0.0968001
0.089014
0.0801172
0.0706386
0.0611333
0.0521414
0.0441456
0.0375271
0.0325269
0.0292141
0.027465
0.0269576
0.0271824
0.0274711
0.0270434
0.0250692
0.0207435
0.0133687
0.0024383
-0.0122849
-0.0307038
-0.0523421
-0.076325
-0.101392
-0.125941
-0.148111
-0.165891
-0.177258
-0.180329
-0.173526
-0.155728
-0.12641
-0.0857428
-0.0346547
0.025164
0.0913146
0.160804
0.230213
0.295909
0.354289
0.402031
0.436337
0.455136
0.457249
0.44247
0.411586
0.366315
0.309172
0.243285
0.172165
0.0994576
0.0287021
-0.0368957
-0.0946475
-0.14252
-0.179213
-0.204188
-0.217633
-0.220384
-0.213815
-0.199695
-0.180035
-0.156935
-0.132444
-0.108434
-0.0864992
-0.0678921
-0.053481
-0.0437426
-0.0387802
-0.0383639
-0.0419879
-0.0489388
-0.058369
-0.0693694
-0.0810369
-0.0925329
-0.103129
-0.112242
-0.11945
-0.1245
-0.127303
-0.127917
-0.126528
-0.123419
-0.118943
-0.113497
-0.107495
-0.101344
-0.0954266
-0.090089
-0.0856276
-0.082285
-0.0802458
-0.079635
-0.0805179
-0.0829005
-0.0867302
-0.091897
-0.0982351
-0.105525
-0.113498
-0.12184
-0.130202
-0.138207
-0.145464
-0.151583
-0.156192
-0.158951
-0.159575
-0.157846
-0.153626
-0.146874
-0.137644
-0.126094
-0.112476
-0.0971296
-0.0804658
-0.0629492
-0.0450748
-0.0273445
-0.0102426
0.00578695
0.0203611
0.0331738
0.0440075
0.052739
0.05934
0.0638712
0.0664732
0.0673522
0.0667634
0.0649929
0.062339
0.0590951
0.0555332
0.0518922
0.0483678
0.0451073
0.0422079
0.0397185
0.0376445
0.0359552
0.0345927
0.0334814
0.032538
0.0316796
0.0308314
0.0299317
0.0289354
0.0278146
0.0265578
0.025167
0.0236536
0.0220346
0.0203271
0.0185456
0.0166986
0.0147881
0.0128103
0.0107581
0.00862597
0.00641494
0.00413908
0.00183149
-0.000450496
-0.00262185
-0.00456875
-0.00615043
-0.00720417
-0.00755344
-0.00701892
-0.00543153
-0.00264678
0.00144092
0.00688508
0.0136764
0.0217354
0.0309101
0.0409775
0.0516519
0.0625966
0.0734416
0.0838036
0.0933092
0.101618
0.108446
0.113583
0.116911
0.118414
0.118176
0.116383
0.113304
0.109272
0.104659
0.0998394
0.0951555
0.090881
0.0871863
0.0841107
0.0815424
0.0792118
0.0766986
0.0734549
0.0688454
0.0622014
0.0528887
0.0403826
0.024346
0.00470249
-0.0183011
-0.0440519
-0.0715534
-0.0994386
-0.126017
-0.149358
-0.1674
-0.178099
-0.179578
-0.170301
-0.149223
-0.115936
-0.0707657
-0.0148325
0.0499539
0.120956
0.194934
0.268231
0.337
0.397458
0.446159
0.480237
0.497623
0.497201
0.478894
0.443668
0.393454
0.331009
0.259702
0.183274
0.105576
0.0303119
-0.0391916
-0.100174
-0.150576
-0.189117
-0.215311
-0.229424
-0.23239
-0.22568
-0.211162
-0.190931
-0.167157
-0.141938
-0.117173
-0.0944686
-0.0750685
-0.0598246
-0.0491915
-0.0432505
-0.0417559
-0.0441965
-0.0498669
-0.057942
-0.0675498
-0.0778365
-0.0880209
-0.0974372
-0.105562
-0.112028
-0.116628
-0.1193
-0.120115
-0.119249
-0.116958
-0.113548
-0.109352
-0.104702
-0.0999152
-0.0952741
-0.0910208
-0.0873502
-0.0844091
-0.082297
-0.0810707
-0.0807481
-0.0813132
-0.0827208
-0.0848996
-0.0877555
-0.0911725
-0.0950145
-0.099126
-0.103333
-0.107445
-0.111257
-0.114559
-0.117134
-0.118774
-0.119283
-0.11849
-0.116257
-0.11249
-0.107145
-0.100232
-0.0918204
-0.0820368
-0.0710627
-0.0591265
-0.0464954
-0.0334632
-0.0203376
-0.00742679
0.00497405
0.0165949
0.0272016
0.0366046
0.0446648
0.0512968
0.0564698
0.0602056
0.0625742
0.0636882
0.0636952
0.0627691
0.061101
0.0588902
0.0563346
0.0536222
0.0509233
0.0483835
0.0461175
0.0442055
0.0426897
0.0415732
0.0408209
0.0403615
0.0400923
0.039885
0.0395937
0.0390642
0.0381448
0.0366966
0.0346054
0.0317917
0.0282199
0.0239055
0.0189197
0.0133904
0.00750044
0.00148133
-0.00439582
-0.00983318
-0.0145216
-0.0181576
-0.020462
-0.0211973
-0.0201844
-0.0173163
-0.0125687
-0.00600564
0.00221996
0.0118705
0.0226335
0.0341364
0.0459648
0.0576841
0.0688626
0.079095
0.0880246
0.0953634
0.100908
0.104549
0.106281
0.106195
0.104477
0.101389
0.0972513
0.0924175
0.0872438
0.0820579
0.0771278
0.0726315
0.0686324
0.0650617
0.0617109
0.0582363
0.0541773
0.048989
0.0420882
0.0329111
0.0209795
0.00596984
-0.0122192
-0.0334091
-0.0570986
-0.0824431
-0.108261
-0.133071
-0.155159
-0.172678
-0.183771
-0.186716
-0.180069
-0.162818
-0.134507
-0.0953377
-0.0462262
0.0111912
0.0746076
0.141154
0.207561
0.270361
0.32612
0.371682
0.404397
0.422318
0.424349
0.410329
0.38104
0.338149
0.284073
0.221801
0.154674
0.0861487
0.0195651
-0.0420619
-0.0962174
-0.141011
-0.17525
-0.198454
-0.210825
-0.213169
-0.206785
-0.19333
-0.17468
-0.152785
-0.129536
-0.106651
-0.0855932
-0.0675009
-0.0531618
-0.0430051
-0.0371212
-0.0353004
-0.0370867
-0.0418403
-0.0488043
-0.0571701
-0.0661377
-0.0749675
-0.0830218
-0.0897937
-0.0949244
-0.0982094
-0.0995935
-0.0991577
-0.0970992
-0.0937066
-0.0893327
-0.0843661
-0.0792037
-0.0742257
-0.0697731
-0.0661295
-0.0635076
-0.0620403
-0.0617759
-0.062679
-0.0646348
-0.0674577
-0.0709034
-0.0746828
-0.0784787
-0.0819635
-0.0848164
-0.0867414
-0.0874822
-0.0868369
-0.0846682
-0.0809108
-0.0755751
-0.0687466
-0.0605811
-0.051296
-0.0411587
-0.0304716
-0.0195563
-0.00873581
0.00168151
0.0114177
0.0202378
0.0279603
0.0344625
0.0396835
0.0436225
0.0463331
0.0479159
0.0485073
0.0482684
0.0473721
0.0459913
0.0442885
0.042407
0.0404643
0.0385487
0.0367177
0.0349999
0.0333979
0.0318935
0.0304536
0.0290364
0.0275978
0.0260964
0.0244984
0.0227797
0.0209279
0.0189417
0.0168297
0.0146073
0.0122941
0.00991037
0.00747363
0.00499672
0.00248638
-5.67491e-005
-0.0026367
-0.00525947
-0.00792932
-0.0106443
-0.0133917
-0.0161435
-0.018853
-0.0214527
-0.0238535
-0.0259464
-0.0276059
-0.0286958
-0.0290764
-0.0286131
-0.0271858
-0.0246988
-0.0210895
-0.0163357
-0.0104614
-0.00353977
0.00430753
0.0129132
0.0220712
0.0315457
0.0410833
0.0504258
0.0593247
0.0675541
0.0749236
0.0812875
0.0865512
0.0906733
0.0936638
0.0955765
0.0964985
0.0965351
0.0957926
0.0943603
0.0922922
0.0895918
0.0862009
0.0819944
0.0767829
0.0703233
0.0623396
0.0525513
0.0407106
0.0266441
0.010297
-0.00822414
-0.0286153
-0.0503491
-0.0726652
-0.0945783
-0.114909
-0.132338
-0.145476
-0.152961
-0.153562
-0.146289
-0.130499
-0.105994
-0.0730883
-0.0326472
0.0139119
0.0646662
0.117276
0.169115
0.217434
0.259544
0.293007
0.315817
0.326551
0.324482
0.309633
0.282781
0.245397
0.199532
0.147667
0.092533
0.0369187
-0.0165132
-0.065392
-0.107773
-0.142231
-0.167914
-0.184546
-0.1924
-0.192224
-0.185154
-0.1726
-0.15613
-0.137355
-0.117819
-0.098914
-0.0818038
-0.0673795
-0.0562342
-0.048661
-0.0446712
-0.0440283
-0.046295
-0.0508872
-0.057132
-0.064324
-0.0717785
-0.0788755
-0.0850964
-0.0900483
-0.093478
-0.0952755
-0.0954665
-0.0941975
-0.0917135
-0.0883313
-0.08441
-0.0803208
-0.0764187
-0.0730163
-0.0703634
-0.0686306
-0.0679003
-0.068163
-0.0693209
-0.0711962
-0.0735449
-0.0760744
-0.0784632
-0.0803825
-0.0815171
-0.0815854
-0.0803568
-0.0776653
-0.0734195
-0.0676078
-0.0602987
-0.0516365
-0.0418329
-0.0311543
-0.019907
-0.00841976
0.00297354
0.0139518
0.0242227
0.033536
0.0416947
0.0485616
0.0540625
0.0581858
0.0609777
0.0625352
0.0629964
0.0625286
0.0613164
0.0595489
0.0574089
0.0550619
0.0526491
0.0502809
0.0480349
0.0459545
0.0440521
0.0423124
0.0406984
0.0391582
0.0376315
0.0360568
0.034377
0.0325445
0.030524
0.0282949
0.0258515
0.0232014
0.0203646
0.0173698
0.0142521
0.0110498
0.00780238
0.00454838
0.00132486
-0.00183251
-0.00488844
-0.00780619
-0.0105452
-0.0130589
-0.0152921
-0.0171797
-0.018646
-0.0196059
-0.0199667
-0.0196325
-0.0185097
-0.0165133
-0.0135747
-0.00964922
-0.0047228
0.00118174
0.0080009
0.015629
0.0239193
0.0326886
0.0417242
0.0507939
0.0596581
0.068083
0.0758541
0.0827892
0.0887492
0.0936461
0.097447
0.100174
0.101896
0.102724
0.102789
0.102228
0.101161
0.0996698
0.0977769
0.0954306
0.0924942
0.0887434
0.0838752
0.0775266
0.0693052
0.0588302
0.0457816
0.0299537
0.0113101
-0.00996689
-0.0334366
-0.0583768
-0.0837815
-0.108383
-0.1307
-0.149115
-0.161972
-0.167696
-0.164921
-0.152621
-0.130234
-0.0977562
-0.0558111
-0.00567523
0.0507475
0.111002
0.17221
0.231236
0.284897
0.330175
0.364436
0.385629
0.392442
0.384399
0.361907
0.326214
0.279324
0.223836
0.162758
0.0992833
0.0365776
-0.0224332
-0.0752375
-0.119873
-0.155014
-0.180003
-0.194839
-0.200115
-0.19692
-0.186727
-0.17125
-0.152309
-0.131704
-0.111096
-0.0919152
-0.0752981
-0.0620458
-0.0526138
-0.0471252
-0.045405
-0.0470306
-0.0513925
-0.0577615
-0.0653544
-0.0733968
-0.0811769
-0.0880894
-0.0936661
-0.0975946
-0.0997238
-0.100058
-0.0987422
-0.0960371
-0.092293
-0.0879172
-0.0833426
-0.078997
-0.075276
-0.0725192
-0.0709918
-0.070872
-0.0722428
-0.07509
-0.0793054
-0.0846934
-0.0909826
-0.09784
-0.104888
-0.111723
-0.117936
-0.12313
-0.126942
-0.129059
-0.129234
-0.127296
-0.123163
-0.116841
-0.108425
-0.0980973
-0.0861148
-0.0727974
-0.0585126
-0.0436573
-0.0286391
-0.013858
0.000311404
0.0135353
0.025533
0.0360861
0.0450437
0.0523242
0.0579128
0.0618561
0.0642544
0.0652508
0.0650208
0.0637597
0.0616717
0.0589592
0.0558142
0.0524109
0.0489009
0.0454097
0.0420357
0.0388499
0.0358978
0.0332012
0.0307614
0.0285622
0.0265737
0.0247553
0.02306
0.0214371
0.0198358
0.018208
0.0165112
0.0147105
0.01278
0.010704
0.00847724
0.00610436
0.0035991
0.000982953
-0.00171628
-0.00446585
-0.0072291
-0.009966
-0.0126331
-0.0151829
-0.017563
-0.0197144
-0.0215711
-0.0230591
-0.0240971
-0.0245974
-0.0244693
-0.0236232
-0.0219758
-0.0194565
-0.0160147
-0.0116263
-0.00630003
-8.22548e-005
0.00694009
0.0146393
0.0228494
0.0313718
0.039984
0.0484506
0.0565367
0.0640223
0.0707168
0.0764727
0.081197
0.0848592
0.0874953
0.0892061
0.0901509
0.0905345
0.0905895
0.0905536
0.0906444
0.0910312
0.0918089
0.092973
0.0944014
0.0958423
0.0969133
0.0971118
0.0958379
0.0924315
0.0862213
0.076585
0.0630172
0.0452001
0.0230724
-0.00311015
-0.0327298
-0.0647833
-0.097885
-0.130302
-0.160024
-0.18486
-0.202576
-0.211044
-0.208408
-0.193258
-0.164783
-0.122897
-0.0683368
-0.002687
0.0716384
0.151491
0.233144
0.312503
0.385366
0.4477
0.495928
0.527184
0.539531
0.532112
0.505211
0.460242
0.399645
0.326702
0.245304
0.159673
0.074073
-0.00746515
-0.0813943
-0.144845
-0.195762
-0.232975
-0.256196
-0.265969
-0.263555
-0.250784
-0.229889
-0.203319
-0.173563
-0.142993
-0.113724
-0.0875137
-0.0656908
-0.0491262
-0.0382325
-0.0329953
-0.0330284
-0.0376461
-0.0459463
-0.0568967
-0.0694194
-0.0824667
-0.0950865
-0.106472
-0.115995
-0.123229
-0.127947
-0.130116
-0.129874
-0.127504
-0.123399
-0.118026
-0.111892
-0.105508
-0.0993614
-0.0938915
-0.0894687
-0.0863818
-0.084829
-0.084914
-0.0866468
-0.0899468
-0.0946502
-0.100519
-0.10725
-0.114493
-0.121859
-0.128939
-0.135321
-0.140606
-0.144428
-0.146466
-0.146465
-0.144247
-0.139723
-0.132895
-0.123866
-0.112829
-0.100066
-0.0859278
-0.0708235
-0.0551959
-0.0395003
-0.024182
-0.00965332
0.00372511
0.0156607
0.02594
0.0344346
0.0411015
0.0459786
0.0491752
0.0508592
0.0512421
0.050562
0.0490677
0.0470035
0.0445963
0.0420456
0.0395167
0.0371368
0.0349947
0.0331424
0.0315994
0.0303576
0.0293875
0.0286441
0.0280724
0.0276124
0.0272031
0.0267849
0.026302
0.0257033
0.024943
0.0239806
0.0227813
0.021316
0.0195618
0.017503
0.0151325
0.0124535
0.00948201
0.00624882
0.00280237
-0.000789396
-0.00443749
-0.00803131
-0.0114394
-0.0145117
-0.0170834
-0.0189812
-0.0200301
-0.0200632
-0.0189316
-0.0165151
-0.0127328
-0.00755315
-0.00100147
0.00683443
0.0158023
0.0256876
0.0362192
0.0470802
0.0579223
0.0683832
0.0781073
0.0867663
0.0940803
0.0998364
0.103904
0.106244
0.106915
0.106067
0.10393
0.100799
0.0970081
0.0928975
0.0887845
0.0849283
0.0814983
0.0785483
0.0759978
0.0736245
0.0710699
0.0678584
0.0634316
0.0571957
0.0485804
0.0371052
0.0224486
0.00451394
-0.016514
-0.0401285
-0.0654824
-0.0913959
-0.116394
-0.138777
-0.156714
-0.168368
-0.172035
-0.166288
-0.150122
-0.123078
-0.0853415
-0.0377994
0.0179557
0.0796717
0.144542
0.209362
0.270725
0.325253
0.369829
0.401826
0.419299
0.42114
0.407151
0.378069
0.335501
0.281803
0.219905
0.153093
0.0847817
0.0182846
-0.0433954
-0.097738
-0.142832
-0.177452
-0.201076
-0.213861
-0.216566
-0.21045
-0.197139
-0.178491
-0.156449
-0.132911
-0.10962
-0.0880686
-0.069439
-0.0545642
-0.0439205
-0.0376423
-0.0355579
-0.0372398
-0.0420655
-0.0492838
-0.0580793
-0.0676348
-0.0771843
-0.0860571
-0.0937096
-0.0997457
-0.103925
-0.10616
-0.106506
-0.105141
-0.102339
-0.0984466
-0.0938526
-0.0889578
-0.0841505
-0.0797828
-0.0761516
-0.0734845
-0.0719301
-0.0715543
-0.0723399
-0.0741916
-0.0769444
-0.0803751
-0.0842154
-0.0881678
-0.0919213
-0.0951673
-0.0976152
-0.0990061
-0.0991254
-0.0978121
-0.0949662
-0.0905527
-0.0846025
-0.0772108
-0.0685313
-0.0587693
-0.0481712
-0.0370131
-0.025588
-0.0141925
-0.00311367
0.00738308
0.0170649
0.0257405
0.0332666
0.0395523
0.0445599
0.0483042
0.0508483
0.0522971
0.05279
0.0524909
0.0515779
0.0502335
0.0486336
0.0469391
0.0452879
0.0437891
0.0425197
0.0415227
0.040808
0.0403556
0.0401201
0.0400363
0.0400266
0.0400081
0.0398993
0.0396269
0.0391303
0.0383657
0.0373077
0.0359493
0.0343004
0.0323845
0.0302345
0.0278884
0.0253846
0.0227581
0.0200374
0.0172435
0.0143902
0.0114858
0.00853687
0.00555245
0.00254923
-0.00044349
-0.00337945
-0.00619233
-0.00879442
-0.0110772
-0.0129144
-0.0141669
-0.0146899
-0.0143412
-0.0129913
-0.0105324
-0.00688859
-0.00202357
0.00405236
0.0112783
0.019541
0.0286771
0.0384771
0.0486935
0.0590514
0.0692612
0.0790327
0.0880902
0.0961872
0.10312
0.108737
0.112951
0.115736
0.117133
0.117238
0.116197
0.114184
0.111385
0.107974
0.104093
0.099829
0.0951934
0.0901143
0.0844303
0.0778972
0.0702053
0.0610077
0.0499595
0.0367651
0.0212308
0.00331825
-0.0168063
-0.0387327
-0.0617829
-0.085007
-0.107204
-0.126967
-0.142758
-0.153002
-0.156205
-0.151076
-0.136659
-0.11245
-0.0784923
-0.0354468
0.0153889
0.0721034
0.132248
0.192962
0.251146
0.303655
0.347524
0.38018
0.399631
0.404629
0.39476
0.370486
0.333105
0.28466
0.227782
0.165497
0.101012
0.037492
-0.0221411
-0.075387
-0.120299
-0.15557
-0.180564
-0.1953
-0.200396
-0.196967
-0.186509
-0.170763
-0.151577
-0.130779
-0.110058
-0.0908757
-0.074396
-0.0614474
-0.0525093
-0.0477245
-0.046931
-0.0497116
-0.0554531
-0.0634119
-0.0727794
-0.082744
-0.0925453
-0.101519
-0.109127
-0.114982
-0.118852
-0.120659
-0.120466
-0.11846
-0.114929
-0.110229
-0.104765
-0.0989579
-0.0932253
-0.087957
-0.0834999
-0.0801439
-0.078113
-0.077559
-0.0785584
-0.0811122
-0.0851478
-0.0905225
-0.0970293
-0.104404
-0.112335
-0.120471
-0.128439
-0.13585
-0.142323
-0.147495
-0.151037
-0.152674
-0.152196
-0.14947
-0.144449
-0.137176
-0.127786
-0.1165
-0.103616
-0.0894925
-0.0745365
-0.0591792
-0.0438562
-0.0289864
-0.0149516
-0.00207958
0.00936999
0.0192147
0.0273539
0.033768
0.0385137
0.0417142
0.043547
0.0442291
0.0440012
0.0431121
0.0418044
0.0403012
0.0387969
0.0374491
0.0363744
0.0356468
0.0352982
0.0353216
0.0356753
0.0362888
0.0370695
0.0379097
0.0386938
0.0393057
0.0396354
0.0395861
0.039079
0.0380591
0.0364985
0.0343986
0.0317914
0.0287378
0.0253253
0.0216625
0.0178731
0.0140875
0.0104341
0.00703034
0.0039738
0.00133511
-0.000847449
-0.00257055
-0.00386541
-0.00479406
-0.00544256
-0.00591134
-0.00630365
-0.00671282
-0.00720959
-0.00783071
-0.00856996
-0.00937266
-0.0101345
-0.010705
-0.0108959
-0.010494
-0.00927699
-0.00703281
-0.00357905
0.00121778
0.00742521
0.0150315
0.0239376
0.0339546
0.0448082
0.0561497
0.0675732
0.0786381
0.0888958
0.0979189
0.10533
0.110831
0.114224
0.115433
0.114508
0.111633
0.107113
0.101351
0.0948251
0.0880478
0.0815214
0.0756929
0.0709066
0.0673634
0.0650883
0.0639101
0.0634592
0.0631824
0.0623779
0.0602492
0.0559747
0.0487893
0.0380718
0.0234312
0.00478433
-0.0175842
-0.0429849
-0.0703166
-0.0980941
-0.124511
-0.147535
-0.16504
-0.174952
-0.175417
-0.164964
-0.142659
-0.108236
-0.0621818
-0.00577687
0.0589234
0.12917
0.20166
0.27273
0.338591
0.395579
0.440421
0.470463
0.483874
0.479779
0.458321
0.420651
0.368835
0.305698
0.234611
0.159254
0.0833568
0.0104627
-0.0562915
-0.114344
-0.161827
-0.197626
-0.221387
-0.233464
-0.234832
-0.226964
-0.211688
-0.191035
-0.167092
-0.141872
-0.117195
-0.094604
-0.0753015
-0.060122
-0.0495258
-0.0436191
-0.0421931
-0.0447779
-0.0507052
-0.059175
-0.0693217
-0.0802756
-0.0912163
-0.101417
-0.110275
-0.117336
-0.122301
-0.12503
-0.12553
-0.12394
-0.120514
-0.115595
-0.109591
-0.102947
-0.0961238
-0.0895728
-0.0837152
-0.0789254
-0.0755159
-0.0737257
-0.0737136
-0.0755528
-0.0792302
-0.0846483
-0.09163
-0.0999259
-0.109224
-0.119161
-0.129338
-0.139328
-0.148703
-0.157037
-0.163931
-0.169024
-0.172008
-0.17264
-0.170753
-0.166262
-0.159171
-0.149571
-0.137639
-0.123631
-0.107874
-0.090751
-0.0726873
-0.0541335
-0.0355473
-0.0173754
-3.66629e-005
0.0160944
0.0307008
0.0435334
0.0544188
0.0632627
0.0700495
0.0748391
0.0777594
0.0789964
0.0787818
0.0773796
0.0750705
0.0721382
0.0688544
0.0654667
0.062188
0.0591888
0.0565914
0.0544686
0.0528448
0.0516995
0.0509738
0.0505792
0.0504063
0.0503354
0.0502457
0.0500246
0.0495744
0.0488177
0.0477006
0.0461935
0.0442897
0.0420029
0.039363
0.036411
0.033195
0.0297651
0.0261705
0.0224572
0.0186671
0.0148389
0.0110097
0.00721773
0.00350598
-7.47137e-005
-0.00346265
-0.00658319
-0.00934797
-0.0116557
-0.0133944
-0.0144459
-0.014691
-0.0140166
-0.0123234
-0.00953371
-0.00559931
-0.000508339
0.00570934
0.0129787
0.0211787
0.0301441
0.0396704
0.0495218
0.0594416
0.0691651
0.0784339
0.0870105
0.0946923
0.101325
0.106809
0.11111
0.114254
0.116327
0.117463
0.117826
0.117595
0.11694
0.115992
0.114828
0.113442
0.111734
0.109501
0.106435
0.102142
0.0961605
0.0880043
0.0772088
0.0633887
0.0463002
0.0259028
0.00241562
-0.0236393
-0.0514113
-0.0797208
-0.107086
-0.131779
-0.151917
-0.165576
-0.170925
-0.166377
-0.150739
-0.123353
-0.0842088
-0.034021
0.0257382
0.0928673
0.16452
0.237349
0.307699
0.371838
0.426209
0.467682
0.493781
0.502874
0.494293
0.468391
0.426512
0.370897
0.304509
0.230824
0.153581
0.0765295
0.00318717
-0.0633712
-0.12068
-0.166992
-0.201336
-0.223505
-0.234008
-0.233962
-0.224967
-0.208954
-0.188026
-0.164308
-0.139811
-0.116316
-0.0952914
-0.0778357
-0.0646554
-0.0560693
-0.0520383
-0.0522156
-0.0560103
-0.0626596
-0.0713031
-0.0810537
-0.0910622
-0.10057
-0.108952
-0.115739
-0.120638
-0.123525
-0.124441
-0.123568
-0.121203
-0.117731
-0.113585
-0.109221
-0.105087
-0.10159
-0.0990832
-0.097842
-0.0980558
-0.0998208
-0.103138
-0.107915
-0.113975
-0.121064
-0.128862
-0.137002
-0.145081
-0.152679
-0.159378
-0.164778
-0.168517
-0.170284
-0.169836
-0.167011
-0.161734
-0.154025
-0.143997
-0.131854
-0.117882
-0.102435
-0.0859231
-0.0687895
-0.0514921
-0.0344824
-0.0181861
-0.00298438
0.0108003
0.0229157
0.0331871
0.0415195
0.0478964
0.0523742
0.0550739
0.0561691
0.0558742
0.05443
0.0520905
0.0491104
0.0457333
0.0421826
0.0386541
0.0353106
0.0322793
0.0296505
0.027479
0.0257857
0.0245617
0.0237722
0.023361
0.0232553
0.0233707
0.0236152
0.0238935
0.0241106
0.0241752
0.0240023
0.0235159
0.0226511
0.0213562
0.0195942
0.0173444
0.0146043
0.0113909
0.00774169
0.00371623
-0.00060337
-0.00511211
-0.00968259
-0.0141664
-0.0183968
-0.0221925
-0.025363
-0.0277156
-0.0290635
-0.0292351
-0.0280843
-0.0255001
-0.0214172
-0.0158239
-0.00876922
-0.000366903
0.00920379
0.0197008
0.0308258
0.042235
0.0535531
0.0643907
0.0743637
0.0831139
0.0903296
0.0957651
0.0992568
0.100736
0.100236
0.0978936
0.0939412
0.0886967
0.0825418
0.0758962
0.0691869
0.0628129
0.0571102
0.0523176
0.0485468
0.0457608
0.0437622
0.0421948
0.0405599
0.0382481
0.0345862
0.0288969
0.0205685
0.00912866
-0.0056815
-0.0238425
-0.045005
-0.0684597
-0.0931339
-0.117619
-0.140228
-0.159091
-0.172268
-0.177899
-0.174346
-0.160358
-0.135207
-0.0988046
-0.0517828
0.00447893
0.0678806
0.135689
0.20468
0.271334
0.332065
0.383466
0.422555
0.446996
0.455277
0.446823
0.422039
0.382284
0.329761
0.267353
0.198412
0.126521
0.0552451
-0.0120934
-0.072618
-0.124052
-0.164818
-0.194087
-0.211764
-0.218433
-0.215252
-0.203827
-0.186063
-0.164011
-0.139725
-0.115126
-0.091897
-0.0714049
-0.0546478
-0.0422381
-0.0344103
-0.0310549
-0.0317701
-0.0359275
-0.0427444
-0.0513574
-0.0608927
-0.0705277
-0.0795409
-0.0873498
-0.0935335
-0.0978419
-0.100192
-0.100655
-0.0994301
-0.0968195
-0.093194
-0.0889607
-0.0845311
-0.0802928
-0.0765854
-0.0736812
-0.0717724
-0.0709638
-0.0712706
-0.0726222
-0.0748694
-0.0777963
-0.0811343
-0.0845784
-0.0878055
-0.0904917
-0.0923306
-0.0930494
-0.092424
-0.0902904
-0.0865539
-0.0811947
-0.0742685
-0.0659047
-0.0562994
-0.0457058
-0.0344209
-0.0227702
-0.011091
0.000284423
0.0110457
0.0209191
0.02968
0.0371622
0.0432634
0.0479469
0.0512391
0.0532241
0.0540339
0.0538377
0.0528285
0.0512097
0.0491819
0.0469311
0.044619
0.0423749
0.0402924
0.038427
0.0367978
0.0353914
0.0341679
0.0330677
0.0320195
0.0309483
0.029782
0.0284578
0.0269266
0.0251553
0.0231282
0.0208458
0.0183232
0.0155867
0.0126708
0.00961449
0.00645838
0.00324292
7.39001e-006
-0.00320962
-0.00636866
-0.00942685
-0.0123349
-0.0150339
-0.017453
-0.019508
-0.0211012
-0.0221239
-0.0224603
-0.0219935
-0.0206133
-0.0182246
-0.0147572
-0.0101738
-0.00447793
0.00228069
0.0100032
0.0185422
0.027705
0.037261
0.0469512
0.0565014
0.0656359
0.0740925
0.081638
0.088081
0.0932841
0.0971709
0.0997306
0.101017
0.101142
0.100265
0.0985782
0.0962865
0.0935853
0.0906384
0.0875558
0.0843743
0.081044
0.0774215
0.0732715
0.0682799
0.062076
0.0542668
0.044479
0.032408
0.01787
0.000852479
-0.0184419
-0.0395624
-0.0617945
-0.0841643
-0.105466
-0.124317
-0.13923
-0.148713
-0.15138
-0.146073
-0.131973
-0.108713
-0.0764556
-0.0359446
0.0114849
0.063943
0.119068
0.174155
0.226318
0.272683
0.310587
0.337773
0.35256
0.353971
0.341815
0.316696
0.279975
0.233665
0.18028
0.122652
0.063733
0.00639519
-0.0467526
-0.0935158
-0.132228
-0.161817
-0.181829
-0.192402
-0.194206
-0.18835
-0.176271
-0.15961
-0.140084
-0.119373
-0.0990164
-0.0803318
-0.0643567
-0.0518164
-0.0431153
-0.0383502
-0.0373427
-0.0396846
-0.0447939
-0.0519743
-0.060475
-0.069547
-0.078492
-0.0867019
-0.0936886
-0.0991014
-0.102735
-0.104527
-0.104547
-0.102978
-0.100095
-0.0962395
-0.0917908
-0.0871413
-0.0826699
-0.0787208
-0.0755841
-0.0734813
-0.0725556
-0.0728663
-0.0743878
-0.0770131
-0.0805615
-0.0847888
-0.0894015
-0.094072
-0.0984565
-0.102212
-0.105014
-0.106574
-0.106651
-0.105068
-0.101718
-0.096569
-0.0896674
-0.0811356
-0.0711655
-0.0600098
-0.0479703
-0.0353836
-0.0226056
-0.00999541
0.00210072
0.0133643
0.0235177
0.0323357
0.0396525
0.0453675
0.0494463
0.0519188
0.0528748
0.0524561
0.0508471
0.0482633
0.04494
0.041119
0.037038
0.0329191
0.0289595
0.0253241
0.0221403
0.0194936
0.0174272
0.0159421
0.0149998
0.0145264
0.0144185
0.0145495
0.0147776
0.0149538
0.0149308
0.0145715
0.0137573
0.0123958
0.0104276
0.00783188
0.00463005
0.000887773
-0.00328523
-0.00773767
-0.0122815
-0.0166989
-0.0207515
-0.0241915
-0.0267734
-0.0282677
-0.0284734
-0.0272312
-0.0244341
-0.0200367
-0.0140619
-0.00660287
0.00217716
0.0120503
0.022733
0.0338988
0.0451941
0.056257
0.0667362
0.0763111
0.08471
0.0917256
0.097227
0.101166
0.103578
0.104576
0.104336
0.103081
0.101056
0.0985
0.0956169
0.0925476
0.0893455
0.0859581
0.0822187
0.0778488
0.072474
0.0656537
0.0569236
0.045849
0.0320859
0.0154447
-0.00404853
-0.0261012
-0.0501176
-0.0751855
-0.100087
-0.123342
-0.143276
-0.158124
-0.166146
-0.165773
-0.155741
-0.135236
-0.104006
-0.0624504
-0.011664
0.0465705
0.109843
0.175234
0.23948
0.299181
0.35103
0.392044
0.419791
0.432566
0.429529
0.410765
0.377284
0.330939
0.274288
0.210404
0.142653
0.0744613
0.00908359
-0.0505928
-0.102213
-0.144067
-0.175148
-0.195162
-0.204477
-0.204044
-0.195279
-0.179923
-0.159903
-0.137186
-0.113651
-0.0909788
-0.0705723
-0.0534964
-0.0404532
-0.0317822
-0.0274844
-0.0272659
-0.0305954
-0.0367704
-0.0449865
-0.0544042
-0.0642108
-0.0736713
-0.0821691
-0.0892334
-0.0945533
-0.0979807
-0.0995208
-0.0993147
-0.0976149
-0.0947556
-0.0911213
-0.0871159
-0.0831323
-0.0795267
-0.0765972
-0.0745677
-0.0735776
-0.0736777
-0.0748315
-0.0769212
-0.0797585
-0.0830983
-0.0866547
-0.090119
-0.0931777
-0.0955298
-0.0969035
-0.0970702
-0.0958567
-0.0931534
-0.0889198
-0.0831859
-0.07605
-0.0676736
-0.0582717
-0.0481022
-0.0374518
-0.0266213
-0.015911
-0.00560528
0.00403971
0.0128077
0.0205302
0.027092
0.0324324
0.0365444
0.0394696
0.0412918
0.0421281
0.0421194
0.0414199
0.040188
0.038577
0.0367285
0.0347667
0.0327948
0.0308934
0.0291201
0.0275108
0.0260819
0.0248329
0.0237493
0.0228053
0.0219666
0.021192
0.0204353
0.0196464
0.0187724
0.0177588
0.0165506
0.0150947
0.0133423
0.0112525
0.00879649
0.00596228
0.00275958
-0.000775689
-0.00457761
-0.00854807
-0.0125564
-0.0164413
-0.0200157
-0.0230738
-0.0254012
-0.0267861
-0.0270327
-0.0259747
-0.0234885
-0.0195043
-0.0140153
-0.00708313
0.00116088
0.0105189
0.0207345
0.0315051
0.0424976
0.0533679
0.0637802
0.0734279
0.0820516
0.0894547
0.0955133
0.100182
0.103489
0.105531
0.106455
0.106437
0.105657
0.104273
0.102392
0.100045
0.0971723
0.0936121
0.0891024
0.0832948
0.0757821
0.0661368
0.0539613
0.0389447
0.020922
-6.8154e-005
-0.0237359
-0.0495062
-0.076505
-0.103571
-0.129294
-0.152083
-0.170256
-0.182158
-0.186286
-0.181427
-0.166783
-0.142079
-0.107644
-0.0644482
-0.0140969
0.041232
0.0988981
0.155955
0.209338
0.256079
0.293514
0.319481
0.332477
0.331775
0.317468
0.290461
0.25239
0.205496
0.152453
0.0961694
0.0395838
-0.0145272
-0.0637217
-0.106026
-0.140027
-0.164914
-0.180483
-0.187088
-0.185568
-0.177146
-0.163307
-0.145681
-0.125922
-0.105597
-0.0861032
-0.0685967
-0.0539484
-0.0427251
-0.0351911
-0.0313304
-0.0308837
-0.0333966
-0.0382753
-0.0448432
-0.0523966
-0.0602548
-0.0678029
-0.0745249
-0.0800262
-0.084046
-0.0864597
-0.0872716
-0.086601
-0.0846617
-0.0817383
-0.0781594
-0.0742711
-0.0704115
-0.0668877
-0.0639568
-0.0618107
-0.0605666
-0.0602622
-0.0608564
-0.0622339
-0.0642154
-0.06657
-0.0690309
-0.0713126
-0.0731292
-0.0742114
-0.0743229
-0.0732749
-0.0709364
-0.067242
-0.0621948
-0.0558663
-0.048391
-0.0399581
-0.0308001
-0.0211793
-0.0113727
-0.00165703
0.00770495
0.0164773
0.0244604
0.0314984
0.0374826
0.0423522
0.0460926
0.0487301
0.0503265
0.0509712
0.0507735
0.0498554
0.0483446
0.0463686
0.0440502
0.0415045
0.0388364
0.0361399
0.0334974
0.0309795
0.0286454
0.0265426
0.024706
0.0231578
0.021906
0.0209434
0.0202465
0.019775
0.0194723
0.0192665
0.019073
0.0187989
0.018348
0.0176276
0.0165555
0.0150681
0.0131279
0.0107298
0.00790713
0.00473434
0.00132817
-0.00215441
-0.00552109
-0.00855208
-0.0110106
-0.0126556
-0.0132559
-0.0126052
-0.0105367
-0.00693662
-0.00175568
0.00498292
0.0131789
0.0226546
0.0331597
0.0443801
0.0559512
0.0674747
0.0785387
0.0887392
0.0977017
0.105103
0.11069
0.114296
0.115849
0.11538
0.113018
0.108987
0.103585
0.0971656
0.0901117
0.0828037
0.0755874
0.0687426
0.0624541
0.0567899
0.0516873
0.0469507
0.042262
0.0372045
0.0312994
0.0240543
0.0150195
0.00384879
-0.00964065
-0.0254145
-0.0431796
-0.0623604
-0.0820966
-0.101266
-0.118536
-0.132435
-0.141456
-0.144166
-0.139335
-0.126055
-0.103853
-0.072785
-0.0334874
0.0128024
0.064278
0.118643
0.173234
0.22519
0.271637
0.309894
0.337674
0.353252
0.355607
0.344495
0.320477
0.284872
0.239658
0.187322
0.130675
0.0726543
0.0161198
-0.036329
-0.0825071
-0.120758
-0.150024
-0.169861
-0.180422
-0.182392
-0.176889
-0.165359
-0.14944
-0.130843
-0.111233
-0.0921238
-0.0747986
-0.0602543
-0.0491692
-0.0418972
-0.0384843
-0.0387029
-0.0421012
-0.0480605
-0.0558571
-0.0647236
-0.073905
-0.0827078
-0.0905381
-0.0969295
-0.101559
-0.104252
-0.104977
-0.103836
-0.101041
-0.096892
-0.0917551
-0.0860314
-0.0801344
-0.0744654
-0.0693938
-0.0652389
-0.0622567
-0.0606304
-0.0604637
-0.0617786
-0.0645166
-0.0685426
-0.0736519
-0.0795805
-0.0860167
-0.0926154
-0.0990135
-0.104847
-0.109766
-0.113454
-0.11564
-0.116115
-0.114739
-0.11145
-0.106266
-0.0992866
-0.0906837
-0.080695
-0.069611
-0.0577593
-0.0454881
-0.0331486
-0.021078
-0.00958418
0.00106788
0.0106657
0.0190558
0.0261469
0.031908
0.0363648
0.0395917
0.0417024
0.042839
0.0431596
0.0428275
0.0420001
0.0408202
0.0394093
0.0378629
0.036249
0.0346086
0.0329582
0.0312946
0.0296
0.0278487
0.0260129
0.0240681
0.021998
0.0197971
0.0174725
0.0150438
0.012541
0.0100018
0.00746755
0.00497885
0.00257092
0.000269718
-0.00191121
-0.00397254
-0.00592954
-0.00781069
-0.00965478
-0.0115066
-0.0134113
-0.0154087
-0.0175261
-0.0197732
-0.0221363
-0.0245746
-0.0270187
-0.0293702
-0.0315045
-0.0332753
-0.0345215
-0.035076
-0.0347756
-0.0334716
-0.0310414
-0.0273976
-0.0224978
-0.0163513
-0.00902292
-0.00063481
0.00863569
0.0185612
0.0288729
0.0392712
0.0494402
0.0590622
0.0678347
0.0754867
0.0817947
0.0865964
0.0898028
0.0914055
0.0914804
0.0901857
0.0877544
0.0844809
0.0807011
0.076768
0.0730224
0.0697606
0.0672017
0.0654567
0.0645019
0.0641606
0.0640955
0.0638147
0.062693
0.0600103
0.0550045
0.0469399
0.0351841
0.0192905
-0.000920633
-0.0252911
-0.0532698
-0.0838826
-0.115733
-0.147037
-0.175699
-0.199417
-0.21583
-0.222682
-0.218002
-0.200289
-0.168678
-0.123072
-0.0642414
0.00614708
0.0855602
0.170699
0.257669
0.342201
0.419926
0.486661
0.538703
0.573093
0.587833
0.582033
0.555978
0.511105
0.449896
0.375695
0.292464
0.204506
0.116174
0.0315885
-0.0456126
-0.112469
-0.16684
-0.207471
-0.234004
-0.246915
-0.247411
-0.23728
-0.218719
-0.194156
-0.166068
-0.136824
-0.108542
-0.0829926
-0.0615222
-0.0450246
-0.0339401
-0.028286
-0.0277119
-0.0315709
-0.0390025
-0.0490179
-0.0605828
-0.0726924
-0.0844347
-0.0950384
-0.103906
-0.110632
-0.115004
-0.116993
-0.116733
-0.114494
-0.110648
-0.105636
-0.0999318
-0.0940137
-0.088333
-0.0832927
-0.0792289
-0.076398
-0.0749695
-0.0750225
-0.0765468
-0.0794482
-0.0835557
-0.088632
-0.0943858
-0.100486
-0.106575
-0.112287
-0.117265
-0.121172
-0.12371
-0.124633
-0.123759
-0.120977
-0.116254
-0.109635
-0.101246
-0.0912838
-0.0800082
-0.0677306
-0.0547977
-0.041576
-0.0284335
-0.0157232
-0.00376667
0.00715973
0.0168355
0.0251037
0.0318744
0.0371249
0.0408956
0.0432829
0.04443
0.044515
0.0437386
0.0423112
0.0404408
0.0383222
0.036128
0.0340021
0.0320557
0.0303655
0.0289747
0.0278954
0.0271131
0.0265913
0.0262773
0.0261068
0.0260092
0.0259108
0.0257385
0.0254216
0.0248939
0.0240944
0.0229692
0.0214729
0.01957
0.0172374
0.0144671
0.0112689
0.0076728
0.00373187
-0.00047652
-0.0048501
-0.00926262
-0.0135663
-0.017596
-0.0211749
-0.0241217
-0.0262588
-0.0274213
-0.027466
-0.0262798
-0.023788
-0.0199598
-0.0148136
-0.00841826
-0.000893411
0.00759369
0.0168335
0.0265818
0.0365694
0.0465134
0.0561297
0.0651452
0.0733113
0.0804152
0.0862908
0.0908272
0.0939746
0.0957477
0.0962245
0.0955426
0.0938911
0.0914981
0.0886156
0.0855006
0.0823939
0.0794979
0.0769543
0.0748236
0.0730679
0.0715403
0.0699807
0.0680222
0.0652079
0.0610188
0.054914
0.0463797
0.0349859
0.0204468
0.00267958
-0.0181438
-0.0415567
-0.0667775
-0.0927114
-0.117979
-0.140976
-0.159955
-0.173137
-0.17884
-0.175616
-0.162393
-0.138592
-0.104237
-0.0600184
-0.00730836
0.0518653
0.114908
0.178796
0.240258
0.295987
0.342871
0.378212
0.399932
0.406723
0.39815
0.37468
0.337648
0.28915
0.231884
0.168951
0.103634
0.0391698
-0.021454
-0.0756802
-0.121514
-0.157609
-0.183297
-0.198571
-0.204022
-0.200744
-0.190211
-0.174142
-0.154366
-0.132693
-0.110799
-0.0901392
-0.0718833
-0.056876
-0.0456282
-0.0383289
-0.0348779
-0.0349333
-0.0379683
-0.0433319
-0.0503102
-0.0581823
-0.0662682
-0.0739683
-0.0807901
-0.0863654
-0.0904559
-0.0929505
-0.0938541
-0.0932722
-0.0913902
-0.0884528
-0.0847414
-0.080554
-0.0761864
-0.0719167
-0.0679923
-0.0646205
-0.0619622
-0.0601283
-0.0591785
-0.0591228
-0.0599246
-0.0615048
-0.0637481
-0.0665088
-0.0696182
-0.0728918
-0.0761366
-0.0791582
-0.0817678
-0.0837887
-0.0850618
-0.0854509
-0.0848469
-0.0831719
-0.0803808
-0.0764641
-0.0714476
-0.0653927
-0.0583942
-0.0505777
-0.0420959
-0.0331234
-0.023851
-0.0144788
-0.00520956
0.00375863
0.0122392
0.0200636
0.0270865
0.033191
0.0382909
0.0423334
0.0452992
0.0472013
0.0480834
0.0480161
0.0470929
0.0454257
0.0431387
0.0403643
0.0372368
0.0338885
0.0304448
0.027021
0.0237192
0.0206265
0.0178134
0.015333
0.0132211
0.011496
0.0101588
0.00919399
0.00857013
0.00824045
0.00814402
0.00820723
0.00834596
0.00846847
0.0084793
0.00828409
0.00779526
0.00693843
0.00565905
0.003929
0.00175237
-0.000829951
-0.0037376
-0.00685037
-0.0100106
-0.0130281
-0.0156887
-0.017764
-0.0190245
-0.0192532
-0.01826
-0.0158958
-0.0120645
-0.00673347
6.00576e-005
0.00820574
0.0175217
0.0277604
0.0386189
0.0497523
0.0607918
0.0713631
0.0811071
0.0896999
0.0968712
0.10242
0.106227
0.108259
0.108573
0.10731
0.104683
0.100958
0.0964365
0.0914239
0.0862034
0.0810064
0.0759855
0.0711922
0.0665623
0.061911
0.0569393
0.0512537
0.0443989
0.0359023
0.0253281
0.0123381
-0.00324778
-0.0213936
-0.0418015
-0.0638812
-0.086742
-0.10921
-0.129872
-0.147153
-0.15941
-0.165052
-0.162673
-0.151183
-0.129934
-0.0988243
-0.0583694
-0.00973278
0.0452927
0.104355
0.164665
0.223159
0.2767
0.322292
0.357293
0.379614
0.387878
0.38152
0.360838
0.326961
0.28177
0.22775
0.167806
0.105059
0.0426295
-0.0165654
-0.0699861
-0.115608
-0.152011
-0.178423
-0.194713
-0.20134
-0.199268
-0.189861
-0.174749
-0.155703
-0.134506
-0.112842
-0.0922006
-0.0738053
-0.058571
-0.0470827
-0.0396002
-0.0360825
-0.0362294
-0.0395344
-0.0453442
-0.0529205
-0.0614993
-0.0703445
-0.0787927
-0.0862875
-0.0924028
-0.0968549
-0.0995033
-0.100343
-0.0994878
-0.0971514
-0.0936204
-0.0892291
-0.0843334
-0.0792873
-0.0744215
-0.0700267
-0.0663411
-0.0635419
-0.0617413
-0.0609863
-0.0612617
-0.062495
-0.0645641
-0.0673057
-0.070524
-0.0740012
-0.0775062
-0.0808045
-0.0836671
-0.0858793
-0.0872484
-0.087611
-0.0868397
-0.0848477
-0.0815927
-0.0770796
-0.0713605
-0.0645331
-0.0567378
-0.048152
-0.0389828
-0.0294586
-0.0198194
-0.0103058
-0.00114908
0.00743901
0.0152753
0.0222125
0.0281441
0.0330077
0.0367853
0.0395009
0.0412161
0.042024
0.0420412
0.0413989
0.0402345
0.0386826
0.0368676
0.0348982
0.0328626
0.0308268
0.0288347
0.0269093
0.0250567
0.0232704
0.0215365
0.0198386
0.0181626
0.0165003
0.0148515
0.013225
0.0116373
0.0101103
0.00866775
0.00733107
0.00611487
0.00502303
0.0040459
0.00315886
0.00232285
0.00148685
0.00059232
-0.000420722
-0.00160645
-0.0030054
-0.0046369
-0.00649234
-0.0085302
-0.0106734
-0.012809
-0.0147916
-0.0164488
-0.01759
-0.0180173
-0.0175376
-0.0159762
-0.0131898
-0.0090788
-0.00359733
0.00323868
0.0113472
0.0205796
0.0307235
0.0415107
0.0526275
0.0637295
0.0744586
0.084461
0.0934064
0.101007
0.107034
0.11133
0.113823
0.114526
0.113539
0.111042
0.10728
0.102549
0.0971646
0.0914413
0.0856602
0.080041
0.0747165
0.0697123
0.0649351
0.0601719
0.0551006
0.0493147
0.0423602
0.0337829
0.0231852
0.0102859
-0.00502127
-0.0226155
-0.0421102
-0.0628321
-0.0838245
-0.103876
-0.121574
-0.135393
-0.143792
-0.145337
-0.138833
-0.123441
-0.098794
-0.0650821
-0.0230996
0.0257477
0.0794855
0.135663
0.191493
0.244024
0.29034
0.327771
0.354084
0.367657
0.367604
0.35384
0.32709
0.288832
0.241185
0.186749
0.128416
0.0691647
0.0118669
-0.0408973
-0.0869847
-0.124796
-0.153335
-0.172226
-0.181677
-0.182422
-0.175617
-0.162731
-0.145417
-0.125391
-0.104316
-0.0837051
-0.0648413
-0.0487254
-0.036046
-0.0271752
-0.0221842
-0.0208773
-0.0228393
-0.0274906
-0.0341471
-0.0420784
-0.050562
-0.0589306
-0.0666089
-0.0731407
-0.078204
-0.0816167
-0.0833313
-0.0834231
-0.0820704
-0.0795321
-0.0761221
-0.0721833
-0.068063
-0.0640907
-0.0605601
-0.0577144
-0.0557366
-0.0547441
-0.0547877
-0.0558539
-0.0578696
-0.0607104
-0.0642086
-0.0681633
-0.0723506
-0.0765332
-0.0804705
-0.0839271
-0.0866819
-0.0885351
-0.0893155
-0.0888867
-0.0871515
-0.0840568
-0.0795959
-0.0738101
-0.0667882
-0.0586648
-0.0496162
-0.0398547
-0.0296206
-0.0191731
-0.00878013
0.0012935
0.0107968
0.019504
0.0272235
0.0338069
0.0391539
0.0432163
0.045998
0.0475534
0.0479817
0.0474204
0.0460358
0.044012
0.0415408
0.0388092
0.0359899
0.0332322
0.0306544
0.0283402
0.026336
0.0246521
0.0232664
0.0221293
0.0211713
0.0203113
0.0194648
0.0185521
0.0175053
0.0162732
0.0148251
0.0131512
0.0112622
0.00918579
0.00696211
0.00463855
0.00226374
-0.000117791
-0.00247011
-0.00476882
-0.00700214
-0.00917002
-0.0112811
-0.0133483
-0.0153825
-0.0173861
-0.0193467
-0.0212313
-0.0229825
-0.0245169
-0.0257265
-0.0264826
-0.0266432
-0.0260628
-0.0246037
-0.0221483
-0.018612
-0.0139538
-0.00818538
-0.00137621
0.00634472
0.0147921
0.0237319
0.0328928
0.0419817
0.0507011
0.0587679
0.0659324
0.0719946
0.0768177
0.0803376
0.0825658
0.0835864
0.0835466
0.082641
0.0810898
0.0791141
0.0769075
0.0746089
0.0722775
0.0698727
0.0672426
0.064122
0.0601431
0.0548587
0.0477782
0.0384153
0.0263444
0.011262
-0.00695185
-0.0281776
-0.0520128
-0.0777453
-0.104351
-0.130515
-0.154689
-0.175164
-0.190185
-0.198069
-0.197345
-0.186892
-0.166066
-0.134799
-0.0936748
-0.0439493
0.0124756
0.0731315
0.135115
0.195264
0.250363
0.297365
0.333612
0.35703
0.366282
0.360867
0.341155
0.308352
0.264406
0.21185
0.153617
0.092826
0.0325674
-0.0242958
-0.0752997
-0.11851
-0.152603
-0.176904
-0.191366
-0.196521
-0.193385
-0.183342
-0.168023
-0.149167
-0.128502
-0.107632
-0.0879504
-0.0705725
-0.0563006
-0.04561
-0.0386613
-0.0353323
-0.0352651
-0.0379247
-0.0426617
-0.0487751
-0.055572
-0.0624174
-0.0687749
-0.0742347
-0.0785286
-0.0815331
-0.083261
-0.0838438
-0.0835071
-0.0825415
-0.081271
-0.0800222
-0.0790955
-0.078741
-0.0791395
-0.0803896
-0.0825019
-0.0853998
-0.0889259
-0.0928543
-0.0969064
-0.10077
-0.10412
-0.10664
-0.108039
-0.108072
-0.106552
-0.103361
-0.0984542
-0.0918647
-0.0836974
-0.0741237
-0.0633717
-0.0517134
-0.0394509
-0.0269014
-0.0143824
-0.00219761
0.00937536
0.0200955
0.029766
0.03824
0.0454221
0.0512689
0.0557854
0.0590205
0.0610601
0.0620194
0.0620344
0.0612535
0.0598295
0.0579126
0.0556443
0.0531529
0.0505508
0.0479328
0.0453759
0.0429403
0.0406706
0.0385986
0.0367447
0.0351206
0.0337301
0.0325709
0.0316345
0.0309062
0.0303646
0.0299804
0.0297157
0.0295235
0.0293476
0.0291234
0.0287801
0.0282432
0.0274398
0.0263028
0.0247779
0.0228293
0.0204469
0.0176508
0.0144966
0.0110772
0.00752257
0.00399746
0.000695216
-0.00217077
-0.00437822
-0.00570911
-0.00596392
-0.00497608
-0.00262538
0.0011507
0.00634875
0.0128952
0.020647
0.0293964
0.0388814
0.0487999
0.0588269
0.0686346
0.0779122
0.0863853
0.0938331
0.100101
0.105108
0.10885
0.111396
0.112873
0.113456
0.113345
0.112738
0.111813
0.110696
0.109447
0.108039
0.106349
0.10416
0.101163
0.0969801
0.0911907
0.0833653
0.0731117
0.0601216
0.0442216
0.0254195
0.00394579
-0.0197172
-0.0448216
-0.0703593
-0.0950898
-0.117591
-0.136332
-0.149769
-0.15645
-0.155134
-0.144907
-0.125291
-0.0963235
-0.0586192
-0.0133855
0.0376041
0.0920824
0.147407
0.200714
0.249108
0.289852
0.32057
0.33942
0.345235
0.337607
0.316924
0.284337
0.241672
0.191287
0.135905
0.0784131
0.0216691
-0.0316852
-0.0793806
-0.119641
-0.151261
-0.173637
-0.18675
-0.191122
-0.187726
-0.17788
-0.163131
-0.145132
-0.125524
-0.105836
-0.0873972
-0.0712781
-0.0582507
-0.0487755
-0.0430097
-0.0408336
-0.0418936
-0.0456541
-0.0514563
-0.0585782
-0.066291
-0.0739107
-0.0808402
-0.0866006
-0.0908523
-0.0934035
-0.0942084
-0.0933562
-0.0910514
-0.0875894
-0.0833278
-0.0786564
-0.0739679
-0.0696307
-0.0659662
-0.0632296
-0.0615978
-0.061162
-0.0619263
-0.0638113
-0.0666629
-0.0702637
-0.0743485
-0.0786198
-0.0827659
-0.086477
-0.0894618
-0.0914615
-0.0922617
-0.0917019
-0.089682
-0.0861657
-0.0811806
-0.0748161
-0.0672177
-0.0585792
-0.0491333
-0.0391398
-0.0288737
-0.0186124
-0.00862361
0.000846517
0.00958283
0.0174093
0.0241944
0.029854
0.0343519
0.0376971
0.0399392
0.0411625
0.0414776
0.0410133
0.0399075
0.0382994
0.0363217
0.0340948
0.031722
0.0292871
0.026853
0.0244626
0.0221404
0.019896
0.0177274
0.0156254
0.0135773
0.0115709
0.0095971
0.00765222
0.00573882
0.00386588
0.00204778
0.000302494
-0.00135086
-0.00289491
-0.00431702
-0.00561208
-0.00678474
-0.00785088
-0.00883792
-0.00978387
-0.010735
-0.0117423
-0.0128562
-0.0141213
-0.0155696
-0.0172142
-0.0190439
-0.0210179
-0.0230637
-0.0250759
-0.0269183
-0.0284288
-0.0294269
-0.0297233
-0.029132
-0.0274833
-0.0246372
-0.0204957
-0.0150145
-0.00821057
-0.00016797
0.00896166
0.0189621
0.0295602
0.0404374
0.0512451
0.0616221
0.0712146
0.0796956
0.0867842
0.092263
0.0959912
0.0979142
0.0980673
0.0965737
0.0936363
0.0895233
0.0845479
0.0790439
0.0733376
0.067719
0.0624129
0.0575539
0.053167
0.0491567
0.0453056
0.0412856
0.0366811
0.0310241
0.0238395
0.0146992
0.00327848
-0.0105871
-0.0268511
-0.0452173
-0.0651172
-0.0857077
-0.105894
-0.124377
-0.139724
-0.150463
-0.155195
-0.152706
-0.142091
-0.12286
-0.0950236
-0.0591482
-0.0163746
0.0316106
0.0826487
0.134227
0.183631
0.228131
0.265166
0.292539
0.30858
0.312271
0.303333
0.282239
0.250182
0.20898
0.160938
0.108679
0.0549536
0.00245417
-0.0463581
-0.0893997
-0.125073
-0.152333
-0.170711
-0.180292
-0.181664
-0.175831
-0.164107
-0.148006
-0.129117
-0.109004
-0.0891001
-0.0706405
-0.0546016
-0.0416723
-0.0322457
-0.026431
-0.0240841
-0.0248494
-0.0282123
-0.033554
-0.0402071
-0.0475064
-0.0548335
-0.0616524
-0.0675344
-0.0721734
-0.0753909
-0.0771319
-0.077454
-0.0765098
-0.0745263
-0.0717813
-0.0685798
-0.0652314
-0.0620288
-0.0592305
-0.0570465
-0.0556273
-0.0550587
-0.0553587
-0.0564795
-0.0583129
-0.0606978
-0.0634312
-0.0662805
-0.0689964
-0.0713275
-0.0730331
-0.0738967
-0.0737365
-0.0724154
-0.0698473
-0.0660013
-0.0609034
-0.0546342
-0.0473248
-0.0391496
-0.0303172
-0.0210597
-0.0116207
-0.00224391
0.00683891
0.0154179
0.0233139
0.0303849
0.0365302
0.0416914
0.045852
0.0490333
0.0512893
0.0527001
0.0533644
0.0533914
0.0528937
0.0519806
0.0507525
0.049297
0.0476866
0.0459772
0.0442089
0.0424072
0.0405853
0.0387467
0.0368884
0.0350033
0.0330834
0.0311216
0.0291136
0.0270589
0.0249618
0.0228313
0.0206809
0.0185282
0.0163937
0.0142996
0.0122686
0.0103221
0.00847873
0.00675271
0.00515278
0.00368125
0.00233391
0.00110059
-3.34534e-005
-0.00108524
-0.00207107
-0.003003
-0.00388506
-0.00470956
-0.00545397
-0.00607868
-0.00652607
-0.00672118
-0.00657408
-0.00598415
-0.00484587
-0.00305612
-0.000522348
0.00282901
0.00704436
0.012136
0.0180769
0.0247981
0.0321886
0.0400988
0.0483467
0.0567274
0.0650238
0.0730198
0.0805132
0.0873282
0.0933262
0.0984141
0.102549
0.105739
0.108038
0.109542
0.110374
0.110667
0.110552
0.110135
0.10948
0.108591
0.1074
0.105759
0.103439
0.100133
0.0954763
0.0890712
0.0805177
0.0694575
0.0556201
0.0388711
0.0192596
-0.00294168
-0.0272073
-0.0527454
-0.0785046
-0.103203
-0.125382
-0.143483
-0.155942
-0.161307
-0.158355
-0.146209
-0.124451
-0.093202
-0.0531774
-0.00569859
0.0473407
0.103557
0.160202
0.214332
0.262997
0.303447
0.33333
0.350867
0.354987
0.34541
0.322667
0.288059
0.243559
0.191658
0.135187
0.0771105
0.0203289
-0.0325096
-0.0791653
-0.117924
-0.147668
-0.167901
-0.178729
-0.180798
-0.175205
-0.163383
-0.146978
-0.127721
-0.107309
-0.0873008
-0.0690308
-0.053551
-0.0415942
-0.0335644
-0.0295488
-0.0293504
-0.032534
-0.0384841
-0.0464664
-0.0556913
-0.0653727
-0.0747801
-0.0832812
-0.0903736
-0.0957035
-0.0990744
-0.100444
-0.0999107
-0.0976964
-0.0941191
-0.0895655
-0.0844609
-0.0792405
-0.0743222
-0.0700833
-0.0668414
-0.0648398
-0.0642387
-0.0651108
-0.0674412
-0.0711327
-0.0760128
-0.0818453
-0.0883426
-0.0951805
-0.102013
-0.108489
-0.114267
-0.119027
-0.122489
-0.124421
-0.12465
-0.123069
-0.11964
-0.114399
-0.10745
-0.098963
-0.0891637
-0.0783256
-0.0667553
-0.0547789
-0.0427274
-0.0309211
-0.0196568
-0.00919482
0.000250305
0.0085167
0.015499
0.0211487
0.0254719
0.028524
0.0304022
0.0312369
0.0311814
0.0304022
0.0290688
0.0273449
0.0253805
0.0233064
0.0212287
0.0192272
0.017354
0.0156343
0.0140689
0.0126376
0.011304
0.0100207
0.00873542
0.00739651
0.00595907
0.00438975
0.0026709
0.000803293
-0.00119264
-0.00327738
-0.00539456
-0.00747492
-0.00944161
-0.0112165
-0.0127272
-0.0139134
-0.0147337
-0.0151697
-0.0152293
-0.0149479
-0.0143864
-0.0136275
-0.0127692
-0.0119171
-0.0111751
-0.0106351
-0.0103676
-0.0104128
-0.0107741
-0.0114134
-0.0122498
-0.0131619
-0.0139926
-0.0145582
-0.0146592
-0.0140944
-0.0126749
-0.0102392
-0.00666683
-0.00189021
0.00409651
0.0112326
0.0193899
0.028377
0.0379477
0.0478135
0.0576593
0.067162
0.0760098
0.0839217
0.0906648
0.0960696
0.100041
0.102563
0.103701
0.103592
0.102435
0.100475
0.0979731
0.0951882
0.0923449
0.089607
0.0870535
0.0846587
0.0822811
0.0796609
0.0764299
0.0721331
0.0662633
0.0583059
0.0477942
0.0343688
0.0178389
-0.00176071
-0.0241227
-0.0486362
-0.0743766
-0.100121
-0.124389
-0.145518
-0.161755
-0.171378
-0.17283
-0.164855
-0.146629
-0.117875
-0.0789478
-0.0308743
0.0246507
0.0853236
0.148343
0.210569
0.26872
0.319595
0.360298
0.388447
0.402356
0.401162
0.384888
0.354442
0.311548
0.258612
0.198543
0.134545
0.0698924
0.0077127
-0.0492045
-0.0985662
-0.138686
-0.168547
-0.187808
-0.19677
-0.196296
-0.187705
-0.172646
-0.152955
-0.130528
-0.107187
-0.0845813
-0.0640978
-0.0468072
-0.033433
-0.0243482
-0.0195948
-0.0189233
-0.0218457
-0.0276986
-0.0357091
-0.0450599
-0.0549494
-0.0646421
-0.0735089
-0.0810548
-0.086934
-0.0909535
-0.0930659
-0.0933537
-0.0920079
-0.0893017
-0.0855629
-0.0811472
-0.0764124
-0.0716967
-0.0673012
-0.0634767
-0.0604151
-0.0582462
-0.0570366
-0.0567937
-0.0574711
-0.0589756
-0.0611761
-0.0639117
-0.067001
-0.07025
-0.07346
-0.0764348
-0.0789871
-0.0809444
-0.0821542
-0.0824888
-0.0818491
-0.0801682
-0.0774135
-0.0735886
-0.068733
-0.0629211
-0.05626
-0.0488852
-0.0409554
-0.0326462
-0.0241428
-0.0156322
-0.00729571
0.000698387
0.00820137
0.0150893
0.0212669
0.0266695
0.0312638
0.0350466
0.0380422
0.0402985
0.0418821
0.0428731
0.0433591
0.0434299
0.0431721
0.0426646
0.0419753
0.0411583
0.0402526
0.0392821
0.0382566
0.0371733
0.0360202
0.034779
0.0334288
0.0319496
0.0303257
0.0285487
0.0266191
0.0245485
0.0223587
0.0200824
0.0177607
0.0154416
0.0131769
0.0110191
0.00901814
0.00721796
0.00565381
0.00434955
0.00331587
0.0025491
0.00203101
0.00172934
0.00159931
0.00158594
0.00162704
0.00165699
0.00161086
0.00142887
0.001061
0.000471383
-0.000357642
-0.00142211
-0.00269395
-0.00411959
-0.00561999
-0.00709218
-0.00841236
-0.00944079
-0.010028
-0.0100225
-0.00927915
-0.00766862
-0.00508609
-0.0014599
0.00324123
0.00900269
0.0157607
0.0234017
0.0317645
0.0406452
0.0498049
0.0589798
0.0678928
0.0762672
0.0838403
0.0903768
0.095682
0.0996131
0.102087
0.103089
0.102672
0.100957
0.0981279
0.0944224
0.0901184
0.0855173
0.0809242
0.0766253
0.0728648
0.0698207
0.0675828
0.0661341
0.0653373
0.0649293
0.0645246
0.06363
0.0616709
0.0580299
0.0520951
0.0433183
0.031277
0.0157372
-0.00328844
-0.0254938
-0.050249
-0.0765919
-0.103246
-0.128666
-0.151115
-0.168762
-0.17981
-0.182627
-0.175896
-0.158742
-0.130852
-0.0925598
-0.0448875
0.0104595
0.0711538
0.134359
0.196895
0.255433
0.306727
0.347837
0.376345
0.390539
0.389537
0.373359
0.342918
0.299954
0.246897
0.186684
0.122545
0.0577797
-0.00446851
-0.0614032
-0.110735
-0.150794
-0.180583
-0.199791
-0.208747
-0.20834
-0.19991
-0.185111
-0.165778
-0.143786
-0.120929
-0.0988164
-0.0787878
-0.061865
-0.0487248
-0.0397
-0.0348033
-0.033769
-0.0361085
-0.041173
-0.0482183
-0.0564686
-0.065172
-0.0736483
-0.0813246
-0.0877587
-0.0926508
-0.0958435
-0.0973122
-0.097148
-0.0955352
-0.0927256
-0.0890124
-0.084705
-0.0801064
-0.0754951
-0.0711114
-0.0671481
-0.0637473
-0.0610001
-0.058951
-0.0576044
-0.0569327
-0.056885
-0.057396
-0.058393
-0.0598013
-0.0615481
-0.0635636
-0.0657805
-0.0681321
-0.070549
-0.0729559
-0.0752688
-0.0773927
-0.0792213
-0.0806386
-0.0815223
-0.0817489
-0.0812009
-0.0797748
-0.0773887
-0.0739913
-0.0695674
-0.0641436
-0.05779
-0.0506198
-0.0427858
-0.0344737
-0.0258937
-0.0172695
-0.00882703
-0.000782236
0.00666972
0.0133641
0.0191739
0.0240147
0.0278468
0.0306738
0.0325396
0.0335225
0.0337279
0.0332801
0.0323136
0.0309651
0.0293654
0.0276339
0.0258732
0.0241663
0.0225747
0.0211384
0.019877
0.0187914
0.0178666
0.017075
0.0163791
0.0157352
0.0150962
0.0144144
0.0136442
0.0127446
0.0116808
0.0104264
0.00896501
0.00729104
0.00541089
0.00334312
0.00111823
-0.00122212
-0.00362664
-0.0060365
-0.0083881
-0.0106162
-0.0126575
-0.0144543
-0.0159583
-0.0171335
-0.0179593
-0.0184323
-0.0185675
-0.0183977
-0.0179728
-0.0173569
-0.0166243
-0.015855
-0.0151286
-0.0145181
-0.014083
-0.0138626
-0.0138704
-0.0140892
-0.0144681
-0.0149217
-0.0153315
-0.015551
-0.0154124
-0.0147367
-0.0133456
-0.0110747
-0.00778784
-0.00338998
0.00216073
0.00884387
0.0165714
0.0251865
0.0344676
0.0441376
0.0538771
0.0633433
0.0721905
0.0800937
0.0867713
0.0920067
0.0956657
0.0977095
0.0981996
0.097295
0.0952416
0.0923515
0.0889761
0.0854716
0.0821615
0.0792975
0.0770231
0.0753429
0.0741015
0.0729759
0.0714832
0.0690061
0.0648356
0.0582311
0.048493
0.0350454
0.0175203
-0.00416182
-0.029725
-0.0584906
-0.0893584
-0.120821
-0.151016
-0.177814
-0.198945
-0.21215
-0.215354
-0.206846
-0.185451
-0.150683
-0.102851
-0.0431225
0.0264769
0.103133
0.18338
0.263292
0.338731
0.405621
0.460227
0.499429
0.520945
0.523502
0.506932
0.472179
0.421225
0.356944
0.282881
0.203003
0.121416
0.042097
-0.0313597
-0.095945
-0.149388
-0.190242
-0.217912
-0.232615
-0.235293
-0.227485
-0.211169
-0.188592
-0.162098
-0.133972
-0.1063
-0.0808622
-0.0590556
-0.041852
-0.0297887
-0.0229898
-0.02121
-0.0238994
-0.0302783
-0.0394189
-0.0503254
-0.0620093
-0.0735538
-0.0841654
-0.093211
-0.10024
-0.104989
-0.10738
-0.107499
-0.105572
-0.101934
-0.0969929
-0.0911981
-0.0850057
-0.0788503
-0.0731212
-0.0681438
-0.0641676
-0.061359
-0.0598007
-0.0594939
-0.0603663
-0.0622807
-0.0650475
-0.0684371
-0.0721931
-0.076045
-0.079721
-0.0829594
-0.0855182
-0.0871848
-0.0877829
-0.0871792
-0.0852871
-0.0820705
-0.077544
-0.0717732
-0.0648718
-0.0569971
-0.0483443
-0.0391383
-0.0296248
-0.0200596
-0.010698
-0.00178385
0.00646154
0.0138485
0.020227
0.025493
0.0295914
0.0325175
0.0343151
0.0350721
0.0349144
0.0339973
0.0324957
0.030594
0.0284752
0.0263112
0.0242536
0.0224265
0.0209209
0.0197917
0.019057
0.0186993
0.0186693
0.0188917
0.0192716
0.0197026
0.0200748
0.0202828
0.0202331
0.0198499
0.0190803
0.0178965
0.0162979
0.0143101
0.0119827
0.00938608
0.00660687
0.00374243
0.000895356
-0.00183214
-0.00434364
-0.0065533
-0.00838998
-0.00980042
-0.0107516
-0.0112322
-0.0112529
-0.010846
-0.0100642
-0.00897853
-0.00767516
-0.00625173
-0.00481277
-0.00346435
-0.00230821
-0.00143532
-0.00091936
-0.000810407
-0.00112913
-0.00186215
-0.00295888
-0.00433039
-0.0058507
-0.00736052
-0.00867387
-0.00958705
-0.00989
-0.00937921
-0.00787157
-0.00521826
-0.00131775
0.00387322
0.0103315
0.0179633
0.026604
0.0360229
0.0459329
0.0560044
0.0658832
0.0752108
0.0836467
0.0908898
0.0966988
0.100908
0.103441
0.10431
0.103623
0.101565
0.0983853
0.0943754
0.0898375
0.0850547
0.0802592
0.0756032
0.0711348
0.0667835
0.0623561
0.0575449
0.0519509
0.0451198
0.0365894
0.025947
0.0128905
-0.00271065
-0.0207609
-0.040897
-0.0624652
-0.0845202
-0.105853
-0.125043
-0.140543
-0.150779
-0.154273
-0.149774
-0.136381
-0.11366
-0.0817326
-0.041327
0.00621112
0.0589578
0.114501
0.170074
0.222734
0.269556
0.307842
0.335322
0.350323
0.3519
0.339906
0.315004
0.278613
0.232797
0.180109
0.123401
0.0656218
0.00961528
-0.0420578
-0.0872698
-0.124433
-0.15256
-0.17128
-0.180803
-0.181861
-0.175603
-0.163483
-0.147137
-0.128255
-0.10847
-0.0892569
-0.0718595
-0.0572348
-0.0460266
-0.0385618
-0.0348679
-0.0347087
-0.0376321
-0.0430277
-0.0501866
-0.0583618
-0.0668227
-0.0749035
-0.0820408
-0.0878011
-0.0918964
-0.0941895
-0.0946886
-0.0935334
-0.0909744
-0.0873473
-0.0830438
-0.078482
-0.0740765
-0.0702119
-0.0672185
-0.0653534
-0.0647869
-0.0655939
-0.0677518
-0.0711441
-0.0755686
-0.0807506
-0.0863602
-0.0920313
-0.0973831
-0.102041
-0.105658
-0.107933
-0.108624
-0.107567
-0.104675
-0.0999477
-0.0934668
-0.0853915
-0.0759485
-0.0654185
-0.0541213
-0.0423978
-0.0305936
-0.0190412
-0.00804468
0.00213292
0.0112802
0.0192435
0.0259301
0.031307
0.0353969
0.0382713
0.0400412
0.0408465
0.0408452
0.0402022
0.0390795
0.0376275
0.0359786
0.0342425
0.0325036
0.0308208
0.0292288
0.0277409
0.0263528
0.0250473
0.0237989
0.0225782
0.0213564
0.0201086
0.0188165
0.0174706
0.0160702
0.0146244
0.0131509
0.0116744
0.0102251
0.00883607
0.00754052
0.0063695
0.00534909
0.00449813
0.00382624
0.0033323
0.00300363
0.00281572
0.00273282
0.00270925
0.00269149
0.00262106
0.00243808
0.00208547
0.00151363
0.000685314
-0.00041935
-0.00179827
-0.00342346
-0.00523821
-0.00715584
-0.0090604
-0.0108095
-0.0122398
-0.0131741
-0.0134316
-0.0128389
-0.011242
-0.00851878
-0.0045902
0.00057039
0.00693054
0.0143957
0.0228101
0.0319621
0.0415937
0.0514135
0.0611123
0.0703817
0.0789316
0.086508
0.0929085
0.0979934
0.101693
0.10401
0.105013
0.10483
0.103629
0.101599
0.0989283
0.0957805
0.0922687
0.0884378
0.0842492
0.079575
0.0742007
0.0678397
0.0601581
0.05081
0.0394818
0.025941
0.0100876
-0.00799869
-0.0280192
-0.0494308
-0.071439
-0.0930117
-0.112918
-0.12979
-0.142207
-0.148795
-0.148343
-0.139911
-0.122943
-0.097353
-0.0635872
-0.022652
0.0239033
0.0740469
0.125369
0.175225
0.220906
0.259827
0.289715
0.308773
0.315825
0.310398
0.292766
0.26392
0.225496
0.179648
0.128884
0.0758878
0.0233337
-0.0262902
-0.0708305
-0.108585
-0.13838
-0.159599
-0.172179
-0.176561
-0.173616
-0.164546
-0.150776
-0.133839
-0.115267
-0.0964924
-0.0787737
-0.0631309
-0.0503117
-0.0407765
-0.0347044
-0.0320171
-0.0324165
-0.0354326
-0.0404758
-0.0468916
-0.0540127
-0.0612046
-0.0679055
-0.0736544
-0.0781111
-0.0810654
-0.0824362
-0.0822632
-0.0806915
-0.077951
-0.0743328
-0.0701644
-0.065785
-0.061523
-0.0576757
-0.0544937
-0.052169
-0.050827
-0.050524
-0.0512469
-0.0529181
-0.0554017
-0.0585129
-0.0620283
-0.0656976
-0.0692557
-0.0724348
-0.0749768
-0.0766441
-0.0772311
-0.0765725
-0.0745524
-0.0711098
-0.0662425
-0.0600092
-0.0525276
-0.0439708
-0.0345603
-0.0245562
-0.0142457
-0.00392941
0.00609326
0.0155387
0.024153
0.0317242
0.0380922
0.0431554
0.046874
0.0492693
0.0504198
0.0504533
0.0495368
0.0478645
0.0456439
0.0430827
0.0403756
0.0376937
0.0351757
0.0329214
0.0309901
0.0294
0.0281325
0.0271376
0.0263418
0.0256571
0.0249908
0.0242535
0.0233682
0.0222758
0.0209398
0.0193485
0.0175149
0.0154745
0.0132818
0.011005
0.00872037
0.00650612
0.00443656
0.00257702
0.00097966
-0.000319419
