-0.00654972
-0.00796362
-0.00933164
-0.0106132
-0.0117729
-0.0127823
-0.0136212
-0.0142788
-0.0147534
-0.0150523
-0.0151907
-0.0151905
-0.0150781
-0.0148831
-0.0146361
-0.0143669
-0.0141027
-0.013867
-0.0136784
-0.0135501
-0.0134894
-0.013498
-0.0135722
-0.013704
-0.0138816
-0.0140906
-0.0143154
-0.0145399
-0.0147492
-0.0149298
-0.0150715
-0.0151671
-0.0152133
-0.0152112
-0.0151655
-0.015085
-0.0149815
-0.0148696
-0.0147652
-0.0146849
-0.0146445
-0.0146579
-0.014736
-0.0148855
-0.0151079
-0.015399
-0.0157483
-0.0161392
-0.0165493
-0.0169514
-0.0173146
-0.017606
-0.0177928
-0.0178444
-0.0177349
-0.0174448
-0.0169639
-0.0162918
-0.0154399
-0.0144308
-0.0132985
-0.0120862
-0.0108445
-0.00962801
-0.0084916
-0.00748602
-0.00665354
-0.00602372
-0.00560973
-0.00540556
-0.0053846
-0.0054998
-0.00568568
-0.00586228
-0.00594111
-0.00583275
-0.00545593
-0.00474734
-0.0036716
-0.00223043
-0.00047012
0.00151365
0.00357458
0.00551885
0.00711302
0.00809695
0.00820142
0.00716989
0.00478307
0.000884854
-0.00459245
-0.0116058
-0.019984
-0.0294187
-0.0394629
-0.0495423
-0.0589767
-0.0670133
-0.0728699
-0.0757864
-0.0750809
-0.0702072
-0.0608083
-0.0467626
-0.0282163
-0.00560009
0.0203739
0.0487366
0.0783066
0.107754
0.13568
0.160703
0.18155
0.197144
0.206675
0.20966
0.205975
0.195864
0.179915
0.159026
0.134332
0.107131
0.0787969
0.0506879
0.0240656
2.30661e-005
-0.0205709
-0.0371082
-0.0492572
-0.0569596
-0.0604093
-0.0600157
-0.0563575
-0.0501291
-0.0420856
-0.0329887
-0.0235588
-0.0144348
-0.00614371
0.000918635
0.00649651
0.0104725
0.012857
0.0137708
0.0134222
0.0120811
0.010053
0.00765294
0.00518247
0.00291063
0.00105918
-0.000207027
-0.000784568
-0.000631292
0.000238079
0.00175977
0.00383128
0.0063234
0.00909273
0.0119942
0.0148924
0.0176714
0.020243
0.0225515
0.0245769
0.0263354
0.0278773
0.0292827
0.0306559
0.0321172
0.0337952
0.0358176
0.0383021
0.0413478
0.045028
0.049383
0.0544162
0.0600906
0.066328
0.0730106
0.0799842
0.0870635
0.0940397
0.100689
0.106781
0.112092
0.116413
0.119558
0.121377
0.121761
0.120646
0.11802
0.11392
0.108436
0.101699
0.0938841
0.0851961
0.0758639
0.0661296
0.0562381
0.0464273
0.0369185
0.0279088
0.0195639
0.0120138
0.00535005
-0.000375263
-0.00514806
-0.00898945
-0.0119513
-0.0141109
-0.0155644
-0.0164207
-0.0167948
-0.0168016
-0.0165507
-0.016142
-0.015662
-0.0151819
-0.0147562
-0.0144226
-0.0142031
-0.0141055
-0.0141255
-0.0142494
-0.0144567
-0.0147232
-0.0150229
-0.0153309
-0.0156247
-0.0158858
-0.0161007
-0.016261
-0.0163635
-0.0164098
-0.0164056
-0.0163598
-0.0162837
-0.0161896
-0.0160901
-0.0159971
-0.0159213
-0.0158712
-0.0158532
-0.0158714
-0.0159272
-0.0160202
-0.0161477
-0.0163057
-0.0164892
-0.0166925
-0.0169096
-0.0171351
-0.0173639
-0.017592
-0.0178163
-0.0180347
-0.0182463
-0.0184513
-0.0186506
-0.0188459
-0.0190393
-0.019233
-0.0194294
-0.0196306
-0.0198382
-0.0200535
-0.020277
-0.0205087
-0.0207479
-0.0209933
-0.021243
-0.021495
-0.0217467
-0.0219958
-0.0222396
-0.0224758
-0.0227024
-0.0229174
-0.0231195
-0.0233077
-0.0234813
-0.0236402
-0.0237844
-0.0239143
-0.0240308
-0.0241348
-0.0242276
-0.0243107
-0.0243857
-0.0244545
-0.0245192
-0.0245819
-0.0246448
-0.0247101
-0.0247798
-0.0248557
-0.0249392
-0.0250311
-0.0251316
-0.02524
-0.0253549
-0.0254738
-0.0255934
-0.0257097
-0.0258183
-0.0259142
-0.0259927
-0.0260495
-0.0260811
-0.0260853
-0.0260614
-0.0260108
-0.0259369
-0.0258454
-0.025744
-0.0256422
-0.0255511
-0.0254822
-0.0254472
-0.0254566
-0.0255191
-0.0256404
-0.0258226
-0.0260629
-0.0263536
-0.0266819
-0.0270296
-0.0273743
-0.0276899
-0.0279483
-0.028121
-0.0281811
-0.0281053
-0.0278762
-0.0274837
-0.026927
-0.0262151
-0.0253671
-0.0244118
-0.0233862
-0.0223331
-0.0212985
-0.0203274
-0.0194608
-0.0187307
-0.0181572
-0.0177449
-0.017481
-0.0173345
-0.0172568
-0.0171845
-0.0170431
-0.0167537
-0.0162398
-0.0154365
-0.0142991
-0.0128123
-0.010998
-0.00892165
-0.00669551
-0.00447862
-0.00247258
-0.000912782
-5.50074e-005
-0.000157688
-0.00146055
-0.00416083
-0.00838857
-0.014183
-0.021472
-0.030057
-0.0396053
-0.0496518
-0.059611
-0.0688
-0.0764731
-0.0818647
-0.0842411
-0.0829549
-0.077501
-0.067568
-0.0530811
-0.0342317
-0.0114906
0.0143986
0.0424463
0.0714645
0.100132
0.127073
0.150945
0.170529
0.184807
0.193042
0.194822
0.190089
0.179148
0.162638
0.141488
0.116848
0.0900146
0.0623383
0.0351399
0.00962995
-0.0131595
-0.0324254
-0.0476257
-0.0584915
-0.0650195
-0.0674477
-0.0662175
-0.0619259
-0.0552716
-0.0470011
-0.0378561
-0.0285278
-0.0196191
-0.0116171
-0.00487669
0.000386014
0.00408924
0.0062733
0.00708148
0.00673637
0.00551374
0.00371606
0.00164748
-0.000408118
-0.00220503
-0.00354861
-0.00430302
-0.00439369
-0.00380513
-0.00257447
-0.000781858
0.00146147
0.00402632
0.0067789
0.00959337
0.0123629
0.0150085
0.017485
0.0197843
0.0219354
0.0240014
0.0260742
0.0282666
0.0307029
0.0335085
0.0367989
0.0406695
0.0451859
0.0503763
0.0562253
0.0626715
0.0696066
0.0768776
0.0842926
0.0916283
0.0986399
0.105072
0.110673
0.115205
0.118457
0.120258
0.120483
0.119063
0.115985
0.111298
0.105108
0.0975723
0.0888964
0.07932
0.0691079
0.0585378
0.0478875
0.0374234
0.0273898
0.0179992
0.00942564
0.00179959
-0.00479422
-0.0103168
-0.0147728
-0.0182057
-0.0206925
-0.0223362
-0.0232586
-0.0235921
-0.0234721
-0.0230305
-0.0223893
-0.0216563
-0.0209218
-0.0202563
-0.0197103
-0.0193147
-0.0190824
-0.0190109
-0.0190852
-0.0192808
-0.0195676
-0.0199127
-0.0202831
-0.0206486
-0.0209833
-0.0212669
-0.0214856
-0.0216319
-0.0217049
-0.0217088
-0.0216527
-0.0215489
-0.0214118
-0.021257
-0.0210996
-0.0209537
-0.0208315
-0.0207427
-0.0206942
-0.0206901
-0.0207316
-0.0208176
-0.0209447
-0.0211079
-0.0213012
-0.021518
-0.0217514
-0.0219951
-0.0222433
-0.0224914
-0.0227356
-0.0229735
-0.0232038
-0.0234262
-0.0236412
-0.0238501
-0.0240546
-0.0242564
-0.0244575
-0.0246594
-0.0248632
-0.0250698
-0.0252791
-0.0254908
-0.0257039
-0.0259168
-0.0261277
-0.0263343
-0.0265343
-0.0267255
-0.0269056
-0.0270726
-0.0272251
-0.0273621
-0.027483
-0.0275879
-0.0276777
-0.0277538
-0.0278179
-0.0278726
-0.0279205
-0.0279647
-0.0280079
-0.0280531
-0.0281026
-0.0281584
-0.0282216
-0.0282925
-0.0283706
-0.0284543
-0.0285409
-0.0286272
-0.0287089
-0.0287817
-0.0288409
-0.0288821
-0.0289016
-0.0288968
-0.0288664
-0.0288109
-0.0287328
-0.0286366
-0.0285286
-0.0284173
-0.0283122
-0.0282237
-0.0281625
-0.0281385
-0.0281598
-0.0282325
-0.0283591
-0.0285383
-0.0287643
-0.029027
-0.0293117
-0.0295997
-0.0298693
-0.0300968
-0.0302583
-0.030331
-0.030295
-0.0301354
-0.0298432
-0.0294173
-0.0288646
-0.0282003
-0.0274475
-0.0266356
-0.0257988
-0.0249725
-0.0241914
-0.0234849
-0.0228744
-0.02237
-0.0219679
-0.021649
-0.0213785
-0.0211071
-0.0207739
-0.0203108
-0.0196486
-0.0187239
-0.0174877
-0.0159131
-0.0140043
-0.0118025
-0.00939152
-0.00689961
-0.00449836
-0.00239736
-0.000834631
-6.27293e-005
-0.000330879
-0.00186394
-0.00483932
-0.00936346
-0.0154497
-0.0229994
-0.0317889
-0.0414637
-0.051542
-0.0614283
-0.0704377
-0.0778311
-0.0828584
-0.0848096
-0.0830681
-0.0771656
-0.06683
-0.0520269
-0.0329854
-0.010209
0.0155343
0.0432408
0.0717206
0.0996637
0.125719
0.148581
0.167077
0.180247
0.187408
0.18821
0.18265
0.171079
0.154171
0.132878
0.108356
0.0818909
0.0548102
0.0283976
0.00381673
-0.0179531
-0.0361643
-0.050329
-0.0602278
-0.065899
-0.0676127
-0.065831
-0.0611596
-0.0542949
-0.0459707
-0.0369072
-0.0277676
-0.019123
-0.0114268
-0.00500085
-3.16601e-005
0.00342406
0.00542542
0.0061274
0.0057568
0.00458634
0.0029088
0.00101311
-0.000836243
-0.00241536
-0.00355203
-0.00413166
-0.00409795
-0.00344911
-0.0022302
-0.000522594
0.00156843
0.00392675
0.00643821
0.00900218
0.0115411
0.0140072
0.0163869
0.0187009
0.0210025
0.0233718
0.0259088
0.0287237
0.0319267
0.0356168
0.0398721
0.0447399
0.0502297
0.0563076
0.0628942
0.0698647
0.0770528
0.0842561
0.0912457
0.097776
0.103598
0.108469
0.112171
0.114516
0.11536
0.114611
0.112234
0.108253
0.10275
0.0958628
0.0877782
0.0787223
0.0689503
0.0587349
0.0483532
0.0380748
0.0281508
0.0188033
0.0102177
0.00253741
-0.00413984
-0.00976237
-0.0143229
-0.017855
-0.020427
-0.022136
-0.0230994
-0.0234478
-0.0233165
-0.0228389
-0.02214
-0.0213315
-0.0205079
-0.0197444
-0.019096
-0.0185977
-0.0182659
-0.018101
-0.0180902
-0.0182104
-0.0184324
-0.0187234
-0.0190503
-0.0193822
-0.0196925
-0.0199601
-0.0201701
-0.0203143
-0.0203906
-0.0204025
-0.020358
-0.0202686
-0.0201478
-0.02001
-0.0198696
-0.0197395
-0.019631
-0.0195527
-0.0195108
-0.0195086
-0.0195469
-0.0196242
-0.0197371
-0.0198809
-0.0200501
-0.0202387
-0.0204409
-0.0206512
-0.0208649
-0.0210784
-0.0212887
-0.0214942
-0.0216942
-0.0218886
-0.0220782
-0.0222641
-0.0224478
-0.0226309
-0.0228147
-0.0230005
-0.023189
-0.0233808
-0.0235759
-0.0237739
-0.0239739
-0.024175
-0.0243755
-0.0245739
-0.0247683
-0.0249569
-0.0251378
-0.0253092
-0.0254695
-0.0256174
-0.0257516
-0.0258715
-0.0259768
-0.0260677
-0.0261448
-0.0262094
-0.0262631
-0.026308
-0.0263466
-0.0263816
-0.0264155
-0.026451
-0.0264901
-0.0265345
-0.0265851
-0.0266418
-0.0267036
-0.0267686
-0.0268338
-0.0268954
-0.0269493
-0.0269909
-0.0270159
-0.0270206
-0.0270022
-0.0269595
-0.026893
-0.0268055
-0.0267016
-0.0265883
-0.0264743
-0.0263698
-0.0262857
-0.0262329
-0.0262214
-0.0262593
-0.0263518
-0.0265004
-0.0267022
-0.0269495
-0.0272297
-0.0275252
-0.0278146
-0.0280736
-0.0282759
-0.0283958
-0.0284092
-0.0282962
-0.0280426
-0.0276415
-0.0270948
-0.0264135
-0.0256175
-0.0247353
-0.0238016
-0.0228555
-0.021937
-0.021084
-0.020328
-0.0196911
-0.0191821
-0.0187947
-0.0185062
-0.0182769
-0.0180525
-0.0177672
-0.0173489
-0.0167254
-0.0158327
-0.0146233
-0.0130749
-0.0111984
-0.00904453
-0.00670838
-0.00433051
-0.00209464
-0.000220885
0.00104531
0.00144872
0.000743668
-0.00128372
-0.00479168
-0.00985913
-0.016464
-0.024466
-0.0335955
-0.0434507
-0.0535047
-0.0631233
-0.0715935
-0.078162
-0.082082
-0.0826666
-0.0793431
-0.0717066
-0.0595668
-0.0429839
-0.0222901
0.00190746
0.0287432
0.0571304
0.0858176
0.11346
0.138704
0.160274
0.177058
0.188186
0.193089
0.191539
0.183668
0.169952
0.151178
0.128389
0.102807
0.0757528
0.0485566
0.0224763
-0.00137647
-0.0220951
-0.0390184
-0.0517525
-0.0601717
-0.0644024
-0.0647913
-0.0618619
-0.0562642
-0.0487199
-0.03997
-0.0307256
-0.021627
-0.0132112
-0.00589066
5.74132e-005
0.00449171
0.00739802
0.00887312
0.00910317
0.00833863
0.00686807
0.00499249
0.00300217
0.00115705
-0.000328212
-0.00129405
-0.00164064
-0.00132757
-0.000369068
0.00117431
0.00320674
0.00560971
0.00825527
0.0110188
0.0137907
0.0164854
0.019049
0.0214626
0.0237439
0.0259445
0.0281459
0.0304516
0.0329787
0.0358474
0.0391708
0.0430438
0.0475339
0.052673
0.0584514
0.0648142
0.0716602
0.0788444
0.0861821
0.0934568
0.100429
0.10685
0.112468
0.117048
0.120379
0.122288
0.122647
0.121381
0.118474
0.113966
0.107957
0.100599
0.092091
0.0826663
0.0725856
0.0621226
0.0515529
0.0411416
0.0311328
0.0217402
0.0131399
0.00546545
-0.00119493
-0.00679825
-0.0113448
-0.0148739
-0.0174585
-0.0191979
-0.0202107
-0.0206264
-0.0205784
-0.020197
-0.0196035
-0.0189053
-0.0181927
-0.0175369
-0.0169891
-0.0165814
-0.0163281
-0.0162281
-0.0162677
-0.0164243
-0.0166692
-0.0169709
-0.0172979
-0.0176215
-0.017917
-0.0181652
-0.0183532
-0.0184747
-0.0185289
-0.0185208
-0.0184592
-0.0183564
-0.0182263
-0.0180837
-0.0179427
-0.0178163
-0.0177153
-0.0176479
-0.0176196
-0.0176332
-0.0176886
-0.0177838
-0.0179146
-0.0180759
-0.0182613
-0.0184647
-0.0186799
-0.0189012
-0.019124
-0.0193446
-0.0195606
-0.0197703
-0.0199735
-0.0201704
-0.020362
-0.0205498
-0.0207355
-0.0209206
-0.0211067
-0.021295
-0.0214863
-0.0216809
-0.0218789
-0.0220797
-0.0222824
-0.0224859
-0.0226886
-0.022889
-0.0230854
-0.0232762
-0.0234596
-0.0236342
-0.0237988
-0.0239522
-0.0240937
-0.0242226
-0.0243387
-0.0244422
-0.0245333
-0.024613
-0.0246821
-0.0247422
-0.0247949
-0.0248422
-0.0248863
-0.0249296
-0.0249741
-0.0250221
-0.0250752
-0.0251347
-0.0252013
-0.0252746
-0.0253536
-0.0254361
-0.0255192
-0.0255991
-0.0256714
-0.0257313
-0.0257745
-0.0257966
-0.0257945
-0.0257665
-0.0257123
-0.0256341
-0.0255358
-0.025424
-0.0253069
-0.0251946
-0.025098
-0.0250286
-0.0249971
-0.0250128
-0.0250822
-0.0252085
-0.0253906
-0.0256227
-0.0258938
-0.0261879
-0.0264848
-0.0267605
-0.0269889
-0.0271433
-0.0271983
-0.0271314
-0.0269256
-0.0265707
-0.0260648
-0.0254151
-0.0246383
-0.02376
-0.0228134
-0.0218372
-0.0208726
-0.0199605
-0.019137
-0.0184305
-0.0178576
-0.0174203
-0.0171045
-0.0168788
-0.0166957
-0.016494
-0.016203
-0.0157486
-0.0150605
-0.0140804
-0.0127712
-0.0111251
-0.00917164
-0.00698305
-0.00467739
-0.00241801
-0.000408936
0.00111421
0.00189782
0.00168817
0.000252632
-0.00259669
-0.00697874
-0.0129204
-0.0203366
-0.0290164
-0.0386157
-0.0486601
-0.0585578
-0.0676235
-0.0751131
-0.0802673
-0.0823632
-0.0807686
-0.0749969
-0.0647582
-0.05
-0.0309361
-0.00805779
0.0178743
0.0458585
0.074701
0.103082
0.129634
0.153031
0.172075
0.185777
0.19343
0.194654
0.189423
0.178068
0.161251
0.139917
0.115224
0.0884679
0.0609904
0.0340971
0.00897683
-0.0133637
-0.0321491
-0.0468653
-0.0572694
-0.0633812
-0.0654571
-0.0639518
-0.0594691
-0.0527097
-0.0444158
-0.0353207
-0.0261034
-0.0173519
-0.00953746
-0.00299866
0.00206332
0.00557984
0.0076016
0.00827909
0.00783874
0.00655676
0.00473303
0.00266654
0.000633987
-0.00112728
-0.00243148
-0.00315135
-0.00321996
-0.00262792
-0.00141656
0.000331983
0.00250676
0.00498104
0.00762542
0.01032
0.012965
0.0154887
0.0178534
0.0200574
0.0221351
0.024153
0.0262043
0.0284008
0.0308635
0.0337119
0.0370538
0.0409755
0.0455323
0.0507418
0.0565785
0.062972
0.0698066
0.0769246
0.0841321
0.091207
0.0979087
0.10399
0.109209
0.113341
0.116191
0.117603
0.117468
0.115732
0.112399
0.107528
0.101235
0.0936849
0.0850843
0.0756726
0.0657101
0.0554666
0.0452094
0.0351918
0.0256434
0.0167614
0.00870414
0.00158727
-0.00451819
-0.00958508
-0.0136275
-0.0166959
-0.0188717
-0.0202597
-0.0209806
-0.0211639
-0.0209403
-0.0204354
-0.0197642
-0.019027
-0.0183063
-0.0176656
-0.0171488
-0.0167813
-0.0165717
-0.0165141
-0.0165915
-0.0167789
-0.0170462
-0.0173619
-0.0176948
-0.0180172
-0.018306
-0.0185436
-0.018719
-0.0188273
-0.0188694
-0.0188513
-0.0187828
-0.0186766
-0.0185469
-0.0184083
-0.0182748
-0.0181587
-0.0180703
-0.0180174
-0.0180049
-0.0180351
-0.018108
-0.0182211
-0.0183704
-0.0185507
-0.0187561
-0.0189802
-0.0192171
-0.0194611
-0.0197074
-0.0199521
-0.0201921
-0.0204255
-0.0206512
-0.0208688
-0.0210788
-0.021282
-0.0214795
-0.0216729
-0.0218635
-0.0220527
-0.0222416
-0.0224313
-0.0226223
-0.0228149
-0.0230092
-0.0232048
-0.0234009
-0.0235965
-0.0237903
-0.0239806
-0.0241657
-0.0243439
-0.0245131
-0.0246716
-0.024818
-0.0249508
-0.0250693
-0.0251733
-0.0252628
-0.025339
-0.0254032
-0.0254576
-0.0255047
-0.0255472
-0.0255881
-0.0256301
-0.0256757
-0.0257268
-0.0257842
-0.0258481
-0.0259176
-0.0259904
-0.0260638
-0.0261338
-0.0261963
-0.0262468
-0.0262813
-0.0262963
-0.0262896
-0.0262605
-0.0262101
-0.0261416
-0.0260601
-0.0259726
-0.025888
-0.0258159
-0.0257665
-0.0257496
-0.0257739
-0.0258458
-0.0259688
-0.0261427
-0.026363
-0.0266208
-0.0269026
-0.0271908
-0.0274644
-0.0277002
-0.0278741
-0.0279627
-0.0279455
-0.0278059
-0.0275337
-0.0271258
-0.0265872
-0.0259316
-0.0251808
-0.0243633
-0.0235131
-0.0226664
-0.0218591
-0.0211232
-0.020483
-0.0199523
-0.0195314
-0.0192054
-0.0189433
-0.0186993
-0.0184145
-0.0180215
-0.01745
-0.0166334
-0.0155172
-0.014067
-0.012277
-0.0101774
-0.00783954
-0.00537929
-0.00295658
-0.000771298
0.000945114
0.00194245
0.00196859
0.000789804
-0.00178658
-0.00588857
-0.0115568
-0.0187245
-0.027203
-0.0366732
-0.046687
-0.0566778
-0.0659823
-0.0738724
-0.0795968
-0.0824302
-0.0817264
-0.0769728
-0.0678412
-0.0542309
-0.0362993
-0.0144768
0.0105372
0.0377981
0.0661607
0.0943405
0.120991
0.144786
0.164513
0.179147
0.187931
0.190422
0.186526
0.176502
0.160944
0.140733
0.11698
0.090944
0.0639476
0.0372927
0.01218
-0.0103587
-0.0295124
-0.0447242
-0.0557049
-0.0624272
-0.0651035
-0.0641494
-0.0601373
-0.0537444
-0.0456984
-0.0367267
-0.0275105
-0.0186468
-0.0106209
-0.00378949
0.00162606
0.00553612
0.00797095
0.00906212
0.00901932
0.00810478
0.00660727
0.00481754
0.00300686
0.0014097
0.000211362
-0.000459118
-0.000530925
1.13679e-005
0.00113467
0.00276735
0.00481135
0.00715516
0.00968686
0.0123059
0.0149331
0.0175181
0.0200435
0.0225266
0.0250167
0.0275908
0.0303458
0.0333893
0.0368291
0.0407622
0.0452638
0.0503783
0.0561112
0.0624239
0.0692311
0.0764011
0.0837598
0.0910969
0.098175
0.104741
0.110538
0.11532
0.118864
0.120981
0.12153
0.120422
0.117631
0.113189
0.107191
0.099788
0.0911813
0.0816116
0.0713483
0.0606768
0.0498857
0.0392534
0.0290371
0.0194624
0.0107152
0.00293664
-0.00378034
-0.00939089
-0.0138962
-0.0173394
-0.0197989
-0.0213817
-0.0222148
-0.0224371
-0.0221912
-0.0216159
-0.0208401
-0.0199776
-0.0191234
-0.0183517
-0.0177153
-0.0172462
-0.0169573
-0.016845
-0.0168923
-0.0170729
-0.0173539
-0.0177001
-0.0180765
-0.0184508
-0.018796
-0.0190909
-0.0193214
-0.0194802
-0.0195666
-0.0195859
-0.0195477
-0.019465
-0.019353
-0.0192274
-0.0191034
-0.0189949
-0.0189133
-0.0188673
-0.0188627
-0.018902
-0.0189852
-0.0191097
-0.0192708
-0.0194625
-0.0196781
-0.0199104
-0.0201526
-0.0203987
-0.0206436
-0.0208834
-0.0211155
-0.0213387
-0.0215529
-0.021759
-0.0219586
-0.022154
-0.0223473
-0.0225409
-0.0227365
-0.0229355
-0.0231388
-0.0233462
-0.0235572
-0.0237703
-0.0239837
-0.024195
-0.0244017
-0.0246011
-0.0247906
-0.0249681
-0.0251318
-0.0252803
-0.0254132
-0.0255305
-0.0256331
-0.0257224
-0.0258004
-0.0258696
-0.0259326
-0.0259924
-0.0260514
-0.026112
-0.026176
-0.0262444
-0.0263175
-0.0263945
-0.026474
-0.0265536
-0.0266301
-0.0266999
-0.0267593
-0.0268042
-0.0268315
-0.0268383
-0.0268232
-0.0267861
-0.0267283
-0.0266531
-0.0265657
-0.0264725
-0.0263817
-0.0263023
-0.0262438
-0.0262153
-0.026225
-0.0262793
-0.0263819
-0.0265335
-0.0267307
-0.0269664
-0.0272291
-0.0275034
-0.0277708
-0.0280105
-0.0282005
-0.0283191
-0.0283466
-0.0282672
-0.0280698
-0.02775
-0.027311
-0.0267633
-0.0261252
-0.0254214
-0.0246817
-0.0239383
-0.0232234
-0.0225656
-0.0219868
-0.021499
-0.0211019
-0.0207806
-0.0205051
-0.0202311
-0.019902
-0.0194528
-0.0188152
-0.0179246
-0.0167273
-0.0151892
-0.0133033
-0.0110974
-0.00863945
-0.00604071
-0.00345615
-0.00108076
0.000858045
0.00211232
0.00242951
0.00157183
-0.000661803
-0.00441268
-0.00973968
-0.016599
-0.0248285
-0.0341384
-0.0441097
-0.0542036
-0.0637797
-0.0721257
-0.0784963
-0.0821602
-0.082452
-0.0788263
-0.0709089
-0.0585415
-0.041816
-0.0210927
0.00299843
0.0295769
0.0575504
0.085672
0.112613
0.137045
0.157727
0.173589
0.183809
0.187864
0.185573
0.177108
0.162977
0.143989
0.121197
0.0958204
0.0691632
0.0425297
0.0171424
-0.00592844
-0.0258208
-0.0419185
-0.0538689
-0.0615828
-0.0652151
-0.0651324
-0.0618684
-0.0560737
-0.0484621
-0.0397588
-0.0306534
-0.0217605
-0.0135898
-0.00652643
-0.000822466
0.00340223
0.00614983
0.00752759
0.00772576
0.00699263
0.00560871
0.00386202
0.00202604
0.000341652
-0.000996238
-0.00184681
-0.00212633
-0.0018063
-0.00090746
0.000509518
0.00235554
0.00452578
0.0069125
0.00941686
0.0119591
0.014486
0.0169758
0.0194398
0.0219208
0.0244884
0.0272325
0.0302539
0.0336545
0.0375265
0.0419417
0.0469428
0.0525351
0.0586817
0.0653005
0.072265
0.0794073
0.0865244
0.0933873
0.0997513
0.105369
0.110002
0.113435
0.115487
0.116022
0.114954
0.112258
0.107968
0.102176
0.0950294
0.086723
0.0774907
0.0675934
0.0573073
0.046911
0.0366732
0.0268414
0.0176324
0.00922458
0.0017524
-0.00469586
-0.0100785
-0.014398
-0.0176971
-0.0200522
-0.0215669
-0.0223637
-0.0225758
-0.02234
-0.021789
-0.0210455
-0.0202179
-0.0193963
-0.018651
-0.0180319
-0.0175693
-0.0172751
-0.0171462
-0.0171668
-0.0173123
-0.0175523
-0.0178542
-0.0181857
-0.0185171
-0.0188235
-0.0190855
-0.0192902
-0.0194308
-0.0195067
-0.0195222
-0.0194859
-0.0194091
-0.0193052
-0.019188
-0.0190708
-0.0189658
-0.0188831
-0.0188306
-0.0188136
-0.0188349
-0.0188949
-0.0189921
-0.0191231
-0.0192836
-0.0194683
-0.0196717
-0.0198884
-0.0201133
-0.0203421
-0.0205712
-0.0207979
-0.0210202
-0.0212373
-0.0214488
-0.0216551
-0.0218567
-0.0220547
-0.0222502
-0.0224441
-0.0226375
-0.0228311
-0.0230253
-0.0232205
-0.0234166
-0.0236132
-0.0238097
-0.0240054
-0.0241991
-0.0243897
-0.0245759
-0.024756
-0.0249288
-0.0250926
-0.0252463
-0.0253884
-0.0255183
-0.0256353
-0.0257393
-0.0258307
-0.0259102
-0.0259793
-0.0260398
-0.0260939
-0.0261439
-0.0261922
-0.0262412
-0.0262928
-0.0263484
-0.0264088
-0.0264737
-0.026542
-0.0266115
-0.0266792
-0.0267413
-0.0267937
-0.0268317
-0.0268511
-0.0268484
-0.0268211
-0.0267679
-0.0266899
-0.0265897
-0.0264725
-0.0263453
-0.0262174
-0.026099
-0.0260017
-0.0259369
-0.0259152
-0.0259453
-0.0260335
-0.0261821
-0.026389
-0.0266475
-0.0269453
-0.0272655
-0.0275863
-0.0278828
-0.0281276
-0.0282928
-0.0283521
-0.0282824
-0.0280661
-0.0276928
-0.0271608
-0.026478
-0.025662
-0.0247398
-0.0237463
-0.022722
-0.0217105
-0.0207546
-0.0198926
-0.0191546
-0.0185588
-0.0181084
-0.0177899
-0.017572
-0.0174068
-0.0172322
-0.0169761
-0.0165628
-0.0159199
-0.0149873
-0.0137256
-0.0121254
-0.0102144
-0.00806363
-0.00579027
-0.00355725
-0.00156861
-6.03843e-005
0.00071312
0.000497225
-0.000941692
-0.00379251
-0.00817493
-0.0141163
-0.0215318
-0.0302098
-0.0398055
-0.0498431
-0.059729
-0.0687759
-0.0762374
-0.0813523
-0.0833957
-0.0817339
-0.0758798
-0.0655433
-0.050673
-0.0314844
-0.00847148
0.0176015
0.0457289
0.0747123
0.103227
0.129901
0.153404
0.172534
0.1863
0.193991
0.195225
0.189978
0.178581
0.161697
0.140274
0.115475
0.0885983
0.0609923
0.0339674
0.00871851
-0.0137422
-0.0326338
-0.0474376
-0.0579068
-0.064058
-0.0661462
-0.0646253
-0.0601004
-0.0532742
-0.044893
-0.0356947
-0.0263642
-0.0174963
-0.00956876
-0.00292706
0.00222144
0.00580288
0.00786406
0.00855334
0.00809688
0.00677278
0.00488488
0.00273806
0.000616599
-0.00123334
-0.00261646
-0.00339593
-0.00349591
-0.00289947
-0.00164252
0.000195473
0.00250297
0.005149
0.00799614
0.0109128
0.0137841
0.0165208
0.0190657
0.0213971
0.0235302
0.0255144
0.0274298
0.02938
0.031484
0.0338671
0.0366505
0.0399417
0.0438252
0.0483542
0.0535445
0.0593698
0.0657599
0.0726013
0.0797399
0.0869867
0.0941256
0.100922
0.107135
0.112526
0.116875
0.119985
0.121697
0.121898
0.120524
0.117565
0.113067
0.107129
0.0998989
0.0915666
0.0823555
0.0725127
0.0622977
0.051971
0.0417838
0.0319678
0.0227266
0.0142289
0.00660421
-6.00326e-005
-0.0057186
-0.0103667
-0.0140365
-0.0167918
-0.0187221
-0.0199357
-0.0205526
-0.0206972
-0.0204925
-0.0200541
-0.0194856
-0.0188756
-0.0182952
-0.0177974
-0.0174171
-0.0171724
-0.0170667
-0.017091
-0.0172272
-0.0174504
-0.0177328
-0.0180455
-0.0183614
-0.0186567
-0.0189123
-0.0191149
-0.0192565
-0.0193351
-0.0193535
-0.0193187
-0.019241
-0.0191325
-0.0190066
-0.0188763
-0.0187536
-0.0186491
-0.0185712
-0.0185257
-0.018516
-0.0185433
-0.0186065
-0.018703
-0.0188287
-0.0189789
-0.0191484
-0.019332
-0.0195251
-0.0197236
-0.0199243
-0.0201246
-0.0203233
-0.0205195
-0.0207132
-0.0209049
-0.0210953
-0.0212854
-0.0214759
-0.0216677
-0.0218612
-0.0220566
-0.0222538
-0.0224522
-0.0226514
-0.0228505
-0.0230486
-0.0232447
-0.0234378
-0.0236272
-0.023812
-0.0239916
-0.0241653
-0.0243326
-0.0244929
-0.0246459
-0.0247909
-0.0249275
-0.0250552
-0.0251735
-0.0252821
-0.0253806
-0.0254691
-0.0255477
-0.0256167
-0.0256771
-0.0257299
-0.0257765
-0.0258185
-0.025858
-0.0258969
-0.0259374
-0.0259814
-0.0260306
-0.0260864
-0.0261497
-0.0262206
-0.0262987
-0.0263826
-0.0264701
-0.0265584
-0.0266439
-0.0267224
-0.0267896
-0.0268408
-0.026872
-0.0268794
-0.0268606
-0.0268142
-0.0267407
-0.0266424
-0.0265238
-0.0263914
-0.0262539
-0.0261215
-0.0260055
-0.0259181
-0.0258709
-0.0258745
-0.025937
-0.0260636
-0.0262552
-0.0265078
-0.0268119
-0.0271526
-0.0275094
-0.027857
-0.0281663
-0.0284061
-0.0285443
-0.028551
-0.0283996
-0.0280701
-0.0275504
-0.0268386
-0.0259437
-0.0248865
-0.0236989
-0.022423
-0.0211088
-0.0198111
-0.0185861
-0.0174869
-0.0165592
-0.0158367
-0.0153374
-0.0150605
-0.0149844
-0.0150664
-0.0152446
-0.0154407
-0.0155661
-0.0155291
-0.0152435
-0.0146384
-0.0136688
-0.0123247
-0.0106396
-0.00869586
-0.00662703
-0.00461605
-0.00288835
-0.0017001
-0.00132149
-0.00201573
-0.00401476
-0.00749322
-0.0125427
-0.0191482
-0.0271697
-0.03633
-0.0462124
-0.0562687
-0.0658382
-0.0741789
-0.0805088
-0.0840562
-0.084115
-0.0801028
-0.0716162
-0.0584783
-0.0407753
-0.0188768
0.00656293
0.034625
0.0641662
0.0938795
0.12237
0.148241
0.170185
0.187074
0.198032
0.202502
0.20028
0.19153
0.17677
0.156839
0.132828
0.106011
0.0777566
0.0494366
0.022344
-0.00238296
-0.0238202
-0.0412986
-0.0544243
-0.0630799
-0.0674065
-0.0677708
-0.0647197
-0.0589287
-0.0511462
-0.0421389
-0.0326424
-0.0233192
-0.0147254
-0.00728917
-0.00129982
0.00309321
0.00587149
0.00713161
0.00706346
0.00592509
0.00401628
0.00165265
-0.000858031
-0.00323597
-0.00524511
-0.00670394
-0.00749133
-0.00754755
-0.006871
-0.0055114
-0.00356018
-0.00113918
0.00161161
0.00454636
0.00752487
0.0104228
0.0131399
0.0156062
0.0177858
0.019678
0.0213165
0.0227663
0.0241187
0.0254845
0.0269872
0.0287538
0.0309069
0.033556
0.03679
0.0406702
0.0452245
0.0504442
0.056281
0.0626474
0.0694183
0.0764348
0.0835097
0.0904349
0.0969896
0.10295
0.1081
0.112237
0.115188
0.116813
0.117011
0.115729
0.112963
0.108756
0.103201
0.0964335
0.0886276
0.079987
0.0707368
0.061114
0.0513571
0.0416971
0.0323482
0.0235
0.0153118
0.00790781
0.00137487
-0.00423828
-0.00891963
-0.012691
-0.0156038
-0.0177338
-0.0191748
-0.0200327
-0.0204192
-0.0204458
-0.0202188
-0.0198349
-0.0193779
-0.0189168
-0.0185043
-0.0181771
-0.0179566
-0.0178502
-0.017854
-0.0179548
-0.0181329
-0.0183647
-0.0186255
-0.018891
-0.0191395
-0.0193534
-0.0195195
-0.0196299
-0.0196815
-0.0196761
-0.0196195
-0.0195208
-0.0193912
-0.0192432
-0.0190895
-0.0189423
-0.0188127
-0.0187097
-0.0186402
-0.0186089
-0.0186177
-0.0186668
-0.0187539
-0.0188755
-0.0190268
-0.0192019
-0.0193951
-0.0196003
-0.019812
-0.0200255
-0.0202368
-0.020443
-0.0206421
-0.0208333
-0.0210164
-0.0211922
-0.0213621
-0.0215277
-0.0216908
-0.0218533
-0.022017
-0.0221834
-0.0223534
-0.0225279
-0.0227071
-0.0228907
-0.0230783
-0.0232691
-0.023462
-0.0236556
-0.0238487
-0.02404
-0.024228
-0.0244115
-0.0245893
-0.0247604
-0.0249239
-0.0250789
-0.0252247
-0.0253608
-0.0254867
-0.0256021
-0.0257067
-0.0258005
-0.0258835
-0.025956
-0.0260184
-0.0260715
-0.0261163
-0.0261539
-0.0261859
-0.026214
-0.0262402
-0.0262666
-0.0262952
-0.0263282
-0.0263672
-0.0264136
-0.0264681
-0.026531
-0.0266014
-0.0266776
-0.0267572
-0.0268367
-0.0269119
-0.0269782
-0.027031
-0.0270656
-0.0270782
-0.0270658
-0.0270273
-0.0269631
-0.026876
-0.0267709
-0.0266551
-0.0265378
-0.0264298
-0.026343
-0.0262892
-0.0262795
-0.0263232
-0.0264266
-0.026592
-0.0268171
-0.0270941
-0.0274098
-0.0277453
-0.0280767
-0.0283763
-0.0286137
-0.0287578
-0.0287787
-0.02865
-0.028351
-0.027869
-0.0272005
-0.0263531
-0.0253455
-0.0242073
-0.0229783
-0.021706
-0.0204431
-0.0192439
-0.0181601
-0.0172363
-0.0165063
-0.0159888
-0.0156841
-0.0155729
-0.0156152
-0.0157518
-0.0159075
-0.0159964
-0.0159286
-0.0156188
-0.014996
-0.0140131
-0.0126568
-0.0109553
-0.00898508
-0.00687268
-0.00479412
-0.00296866
-0.00164799
-0.00110042
-0.00159075
-0.00335663
-0.00658295
-0.0113761
-0.0177402
-0.0255572
-0.0345746
-0.0444001
-0.0545084
-0.0642579
-0.0729195
-0.079716
-0.0838708
-0.0846625
-0.0814825
-0.0738907
-0.0616652
-0.0448411
-0.0237337
0.00105615
0.0286579
0.057968
0.0877067
0.116491
0.14292
0.165665
0.183559
0.195676
0.201395
0.200447
0.192926
0.179289
0.160314
0.137052
0.110748
0.0827552
0.0544513
0.0271468
0.00201106
-0.019991
-0.038143
-0.0520015
-0.0614006
-0.0664366
-0.0674381
-0.0649227
-0.0595458
-0.0520454
-0.0431873
-0.0337142
-0.0243025
-0.0155271
-0.00783823
-0.00154796
0.00317178
0.0062822
0.00786261
0.00808942
0.00721135
0.00552293
0.00333825
0.000966755
-0.00130767
-0.00324325
-0.00465193
-0.00540593
-0.00543935
-0.00474535
-0.00336954
-0.00140047
0.00104188
0.0038186
0.00678451
0.00980016
0.0127424
0.015513
0.0180454
0.0203079
0.0223058
0.0240795
0.0257014
0.02727
0.028903
0.030729
0.0328778
0.0354719
0.0386169
0.0423934
0.0468499
0.0519974
0.0578058
0.0642023
0.0710727
0.0782636
0.0855885
0.0928343
0.0997706
0.106159
0.111766
0.116369
0.119772
0.121814
0.122374
0.12138
0.118813
0.114706
0.109145
0.102265
0.0942422
0.0852897
0.0756446
0.0655592
0.05529
0.0450872
0.0351844
0.0257903
0.0170814
0.00919699
0.00223591
-0.00374433
-0.00872642
-0.0127304
-0.0158089
-0.018042
-0.01953
-0.020387
-0.020734
-0.0206924
-0.020378
-0.0198967
-0.0193405
-0.018785
-0.0182884
-0.0178912
-0.0176169
-0.0174742
-0.0174587
-0.0175562
-0.0177451
-0.0179997
-0.0182925
-0.018597
-0.0188892
-0.0191492
-0.0193622
-0.0195187
-0.0196148
-0.0196515
-0.019634
-0.0195711
-0.0194738
-0.0193545
-0.019226
-0.0191006
-0.0189892
-0.0189012
-0.0188435
-0.0188209
-0.018836
-0.0188889
-0.018978
-0.0191002
-0.019251
-0.0194252
-0.0196173
-0.0198216
-0.020033
-0.0202467
-0.0204587
-0.0206661
-0.0208666
-0.0210593
-0.0212438
-0.0214209
-0.0215917
-0.0217581
-0.0219222
-0.0220864
-0.0222529
-0.0224238
-0.0226007
-0.0227849
-0.0229769
-0.0231769
-0.0233841
-0.0235972
-0.0238145
-0.0240336
-0.024252
-0.0244668
-0.0246752
-0.0248744
-0.0250621
-0.0252361
-0.0253948
-0.0255371
-0.0256627
-0.0257717
-0.025865
-0.025944
-0.0260105
-0.0260668
-0.0261155
-0.0261593
-0.0262008
-0.0262425
-0.0262868
-0.0263352
-0.0263892
-0.0264494
-0.0265157
-0.0265874
-0.0266631
-0.0267407
-0.0268176
-0.0268907
-0.0269564
-0.0270111
-0.0270513
-0.0270736
-0.0270753
-0.0270544
-0.0270101
-0.0269429
-0.0268546
-0.026749
-0.0266313
-0.0265086
-0.0263893
-0.0262829
-0.0261995
-0.0261493
-0.0261418
-0.026185
-0.0262845
-0.026443
-0.026659
-0.0269269
-0.0272363
-0.0275719
-0.0279142
-0.0282396
-0.0285219
-0.0287335
-0.0288471
-0.0288373
-0.0286831
-0.0283694
-0.0278888
-0.027243
-0.0264433
-0.0255111
-0.024477
-0.0233795
-0.0222626
-0.0211728
-0.0201559
-0.0192525
-0.0184947
-0.0179022
-0.0174789
-0.0172114
-0.0170678
-0.0169985
-0.0169389
-0.0168136
-0.0165425
-0.0160481
-0.0152645
-0.0141464
-0.0126781
-0.0108816
-0.00882298
-0.00661538
-0.00441929
-0.00243805
-0.000908856
-8.91515e-005
-0.00023855
-0.00159717
-0.00436151
-0.00865956
-0.0145269
-0.0218863
-0.0305325
-0.0401252
-0.0501908
-0.0601352
-0.0692679
-0.0768367
-0.0820719
-0.0842384
-0.082691
-0.0769305
-0.066655
-0.0518025
-0.0325801
-0.00947609
0.0167476
0.0450839
0.0743288
0.103148
0.130158
0.154012
0.173491
0.187586
0.195567
0.197039
0.191961
0.180655
0.163781
0.142283
0.117328
0.0902243
0.0623311
0.0349738
0.00936375
-0.0134696
-0.0327288
-0.0478801
-0.058664
-0.0650878
-0.0674001
-0.0660522
-0.0616499
-0.0548994
-0.0465529
-0.037356
-0.0280022
-0.019095
-0.0111209
-0.00443311
0.000754696
0.00436362
0.00643716
0.00712185
0.00664353
0.00528114
0.00334027
0.00112816
-0.00106829
-0.00300032
-0.00447026
-0.00533936
-0.00553042
-0.00502575
-0.00386105
-0.00211608
9.69189e-005
0.0026461
0.00539306
0.00820533
0.0109674
0.0135897
0.0160151
0.0182224
0.0202277
0.0220817
0.023866
0.0256857
0.0276617
0.0299209
0.0325859
0.0357656
0.0395452
0.0439788
0.0490821
0.0548289
0.0611486
0.067927
0.0750095
0.0822062
0.0893003
0.0960568
0.102234
0.107594
0.111916
0.115005
0.116703
0.116898
0.115529
0.112587
0.108123
0.102235
0.095076
0.0868366
0.0777421
0.0680403
0.0579906
0.0478529
0.0378766
0.0282908
0.0192957
0.0110561
0.00369707
-0.0026988
-0.00809105
-0.0124796
-0.0159009
-0.0184226
-0.0201375
-0.0211562
-0.0216003
-0.0215952
-0.0212639
-0.0207213
-0.0200698
-0.0193962
-0.0187696
-0.0182405
-0.0178414
-0.0175881
-0.0174817
-0.017511
-0.017656
-0.0178903
-0.0181846
-0.0185089
-0.018835
-0.0191384
-0.0193994
-0.0196038
-0.0197435
-0.0198159
-0.0198237
-0.0197739
-0.0196768
-0.0195451
-0.0193926
-0.0192333
-0.0190804
-0.0189458
-0.0188391
-0.0187679
-0.018737
-0.0187489
-0.0188037
-0.0188997
-0.0190331
-0.0191994
-0.0193928
-0.0196075
-0.0198374
-0.0200768
-0.0203204
-0.0205637
-0.0208031
-0.0210357
-0.0212596
-0.0214737
-0.0216777
-0.021872
-0.0220573
-0.022235
-0.0224067
-0.0225741
-0.0227392
-0.0229035
-0.0230687
-0.0232361
-0.0234067
-0.0235811
-0.0237593
-0.0239409
-0.0241253
-0.024311
-0.0244964
-0.0246795
-0.0248581
-0.0250299
-0.0251928
-0.0253448
-0.0254841
-0.0256096
-0.0257208
-0.0258176
-0.0259007
-0.0259716
-0.0260322
-0.0260849
-0.0261324
-0.0261775
-0.026223
-0.0262715
-0.026325
-0.0263849
-0.0264518
-0.0265255
-0.0266047
-0.0266874
-0.0267705
-0.0268503
-0.0269227
-0.0269831
-0.0270273
-0.0270514
-0.0270521
-0.0270274
-0.0269769
-0.0269018
-0.0268053
-0.0266925
-0.0265707
-0.0264487
-0.0263368
-0.0262459
-0.0261872
-0.0261709
-0.0262059
-0.026298
-0.0264499
-0.02666
-0.0269219
-0.027224
-0.0275498
-0.0278782
-0.0281845
-0.0284412
-0.0286203
-0.0286942
-0.0286387
-0.0284343
-0.0280683
-0.0275366
-0.0268447
-0.026008
-0.0250519
-0.0240103
-0.0229241
-0.0218387
-0.0207998
-0.0198506
-0.0190275
-0.0183558
-0.017847
-0.0174959
-0.0172792
-0.0171557
-0.0170678
-0.0169453
-0.0167105
-0.0162855
-0.0155996
-0.0145993
-0.0132563
-0.0115771
-0.00960914
-0.00744579
-0.00522777
-0.00314049
-0.00140715
-0.000276993
-9.18744e-006
-0.000852626
-0.00302284
-0.00667735
-0.0118913
-0.0186356
-0.0267593
-0.035979
-0.0458769
-0.0559089
-0.0654238
-0.0736934
-0.0799534
-0.0834513
-0.0835014
-0.0795403
-0.0711806
-0.0582575
-0.0408642
-0.0193707
0.00557475
0.0330654
0.0619763
0.0910236
0.118839
0.144055
0.165395
0.181757
0.192294
0.196468
0.194092
0.185341
0.170736
0.15111
0.127542
0.101289
0.0736947
0.0461029
0.0197762
-0.00417858
-0.0248673
-0.0416483
-0.0541509
-0.0622757
-0.0661759
-0.0662235
-0.0629653
-0.05707
-0.0492744
-0.0403295
-0.030952
-0.0217831
-0.0133574
-0.00608207
-0.000226434
0.00407719
0.00682432
0.00812155
0.0081644
0.00721198
0.00556049
0.00351752
0.0013788
-0.000591376
-0.00217502
-0.00321033
-0.00359633
-0.00329258
-0.00231462
-0.000725714
0.00137395
0.00385977
0.00659585
0.00944786
0.0122947
0.0150382
0.0176109
0.0199803
0.0221511
0.024164
0.0260919
0.028034
0.0301077
0.0324392
0.0351534
0.0383638
0.0421625
0.0466113
0.0517353
0.0575169
0.0638941
0.0707594
0.0779632
0.0853184
0.0926079
0.0995941
0.10603
0.111669
0.116281
0.119659
0.121633
0.122078
0.12092
0.118141
0.11378
0.107931
0.100739
0.0923968
0.0831293
0.0731891
0.0628426
0.052359
0.0419986
0.0320023
0.0225828
0.0139173
0.00614212
-0.000649626
-0.00640897
-0.0111292
-0.0148422
-0.0176133
-0.0195349
-0.0207193
-0.0212908
-0.0213794
-0.0211128
-0.0206115
-0.0199834
-0.0193205
-0.0186963
-0.0181656
-0.0177637
-0.0175087
-0.0174028
-0.0174354
-0.0175862
-0.0178283
-0.0181312
-0.0184641
-0.0187977
-0.0191067
-0.019371
-0.0195764
-0.0197151
-0.0197852
-0.0197904
-0.0197387
-0.0196417
-0.019513
-0.0193673
-0.0192191
-0.0190816
-0.0189663
-0.0188821
-0.0188351
-0.0188289
-0.018864
-0.0189389
-0.0190499
-0.0191922
-0.0193598
-0.0195466
-0.0197465
-0.0199542
-0.0201649
-0.0203753
-0.0205827
-0.0207861
-0.020985
-0.0211802
-0.0213728
-0.0215645
-0.0217571
-0.0219522
-0.0221513
-0.0223553
-0.0225648
-0.0227796
-0.0229992
-0.0232223
-0.0234475
-0.0236726
-0.0238958
-0.0241146
-0.0243269
-0.0245305
-0.0247237
-0.0249047
-0.0250724
-0.0252257
-0.0253643
-0.0254879
-0.0255971
-0.0256924
-0.0257751
-0.0258467
-0.0259088
-0.0259638
-0.0260136
-0.0260609
-0.0261079
-0.0261569
-0.02621
-0.0262689
-0.0263349
-0.0264085
-0.0264899
-0.026578
-0.0266714
-0.0267675
-0.0268631
-0.0269545
-0.0270374
-0.0271073
-0.0271601
-0.0271917
-0.0271994
-0.0271811
-0.0271368
-0.0270678
-0.0269778
-0.026872
-0.026758
-0.0266446
-0.026542
-0.0264609
-0.026412
-0.0264049
-0.0264473
-0.0265442
-0.026697
-0.0269031
-0.0271551
-0.0274408
-0.0277436
-0.0280425
-0.0283136
-0.0285311
-0.028669
-0.0287024
-0.0286102
-0.0283764
-0.0279918
-0.0274556
-0.0267761
-0.0259708
-0.0250662
-0.024096
-0.0230996
-0.0221188
-0.0211949
-0.0203646
-0.0196568
-0.0190886
-0.0186625
-0.0183648
-0.0181644
-0.0180136
-0.0178511
-0.0176052
-0.0172007
-0.0165652
-0.0156381
-0.014379
-0.0127765
-0.0108558
-0.0086849
-0.00637736
-0.00409253
-0.00203119
-0.00042695
0.000466948
0.000395025
-0.000879473
-0.00355121
-0.00774848
-0.01351
-0.0207644
-0.0293159
-0.0388356
-0.0488638
-0.0588213
-0.0680319
-0.0757562
-0.0812342
-0.0837357
-0.0826146
-0.0773646
-0.0676696
-0.0534472
-0.0348784
-0.0124213
0.0131946
0.0409942
0.0698036
0.0983136
0.125159
0.149002
0.168626
0.183014
0.19142
0.193423
0.188955
0.178306
0.162099
0.141249
0.116894
0.0903161
0.0628576
0.0358327
0.0104482
-0.0122644
-0.0314999
-0.0467119
-0.057625
-0.0642286
-0.0667525
-0.0656298
-0.0614496
-0.0549034
-0.0467316
-0.0376711
-0.0284095
-0.0195478
-0.0115725
-0.00483872
0.000435474
0.00416571
0.00638886
0.00724416
0.00694973
0.00577662
0.00402257
0.00198715
-5.00139e-005
-0.00184689
-0.00321178
-0.00401081
-0.00417027
-0.00367422
-0.00255795
-0.00089832
0.00119817
0.00360842
0.00620584
0.00887271
0.0115108
0.0140495
0.016452
0.018717
0.0208787
0.0230035
0.0251836
0.0275292
0.0301587
0.0331883
0.0367213
0.040838
0.045587
0.0509779
0.0569767
0.0635036
0.0704337
0.0776004
0.084802
0.0918101
0.0983798
0.104262
0.109216
0.113021
0.11549
0.116475
0.115882
0.11367
0.109859
0.104525
0.0977996
0.0898634
0.0809365
0.0712688
0.0611287
0.05079
0.040521
0.0305722
0.0211673
0.0124943
0.00470065
-0.00211109
-0.00788362
-0.0126038
-0.0162991
-0.0190325
-0.0208958
-0.0220025
-0.0224797
-0.0224606
-0.0220776
-0.0214556
-0.020707
-0.0199281
-0.0191962
-0.0185686
-0.0180831
-0.0177587
-0.0175981
-0.0175903
-0.017714
-0.0179407
-0.0182381
-0.0185731
-0.0189145
-0.0192348
-0.0195121
-0.0197305
-0.019881
-0.0199607
-0.0199726
-0.0199246
-0.0198282
-0.0196975
-0.0195477
-0.0193941
-0.0192509
-0.0191305
-0.0190431
-0.018996
-0.0189936
-0.0190374
-0.0191266
-0.019258
-0.0194266
-0.0196264
-0.0198504
-0.0200916
-0.0203431
-0.0205986
-0.0208528
-0.0211011
-0.0213406
-0.021569
-0.0217856
-0.0219905
-0.0221846
-0.0223696
-0.0225475
-0.0227206
-0.0228911
-0.023061
-0.0232322
-0.0234061
-0.0235833
-0.0237641
-0.0239484
-0.0241352
-0.0243235
-0.0245117
-0.0246981
-0.0248806
-0.0250576
-0.0252271
-0.0253877
-0.0255381
-0.0256774
-0.0258051
-0.0259214
-0.0260264
-0.0261212
-0.0262068
-0.0262845
-0.0263559
-0.0264224
-0.0264853
-0.0265458
-0.0266044
-0.0266614
-0.0267161
-0.0267677
-0.0268146
-0.0268547
-0.0268858
-0.0269055
-0.0269118
-0.026903
-0.0268783
-0.026838
-0.0267837
-0.0267185
-0.0266469
-0.0265749
-0.0265096
-0.026459
-0.0264312
-0.026434
-0.0264743
-0.026557
-0.0266844
-0.0268559
-0.027067
-0.0273095
-0.0275711
-0.0278362
-0.0280861
-0.0283001
-0.028457
-0.0285363
-0.0285198
-0.0283933
-0.0281481
-0.0277821
-0.0273005
-0.0267163
-0.0260496
-0.0253267
-0.0245782
-0.0238366
-0.0231335
-0.0224963
-0.0219448
-0.0214885
-0.0211237
-0.0208323
-0.020581
-0.0203224
-0.0199974
-0.0195393
-0.0188794
-0.0179538
-0.0167112
-0.015121
-0.0131811
-0.0109253
-0.00842809
-0.00580772
-0.00322572
-0.000882727
0.000989753
0.00214185
0.00232178
0.00129561
-0.00113061
-0.00508774
-0.0106212
-0.0176715
-0.0260588
-0.0354755
-0.0454856
-0.0555352
-0.0649728
-0.07308
-0.0791116
-0.0823436
-0.0821253
-0.0779334
-0.0694224
-0.0564681
-0.0391992
-0.0180143
0.00642076
0.033194
0.0611892
0.0891457
0.115732
0.13963
0.159622
0.174673
0.184
0.187132
0.183942
0.174649
0.15981
0.140273
0.117116
0.091575
0.0649558
0.0385521
0.0135643
-0.00896867
-0.0282224
-0.0436217
-0.0548557
-0.0618738
-0.0648651
-0.064223
-0.0605002
-0.0543574
-0.0465099
-0.0376764
-0.0285336
-0.0196781
-0.011598
-0.00465596
0.000918424
0.00502536
0.00768374
0.00901304
0.00921075
0.00852718
0.00723993
0.00562978
0.00395962
0.00245751
0.00130472
0.000628924
0.000502592
0.00094602
0.00193432
0.00340738
0.00528172
0.00746312
0.00985895
0.0123891
0.014995
0.0176455
0.0203402
0.0231089
0.0260087
0.0291174
0.0325252
0.036325
0.0406013
0.04542
0.0508179
0.056795
0.0633088
0.0702708
0.0775469
0.0849608
0.0923001
0.0993255
0.105783
0.111414
0.115974
0.119241
0.121031
0.121208
0.119694
0.116469
0.11158
0.105137
0.0973041
0.0882981
0.0783743
0.0678151
0.0569171
0.0459767
0.0352775
0.025078
0.0156015
0.00702824
-0.000509591
-0.00693042
-0.0122028
-0.0163426
-0.0194078
-0.0214914
-0.0227138
-0.0232139
-0.02314
-0.0226416
-0.021862
-0.0209318
-0.0199638
-0.01905
-0.0182596
-0.017639
-0.0172126
-0.0169854
-0.016946
-0.0170699
-0.0173239
-0.0176697
-0.0180676
-0.0184796
-0.0188723
-0.0192183
-0.0194975
-0.0196981
-0.0198156
-0.0198529
-0.0198186
-0.0197263
-0.0195922
-0.0194344
-0.0192711
-0.0191193
-0.0189937
-0.0189064
-0.0188659
-0.0188772
-0.0189421
-0.0190589
-0.0192236
-0.0194299
-0.0196702
-0.019936
-0.0202188
-0.0205103
-0.0208031
-0.0210909
-0.0213689
-0.0216335
-0.0218829
-0.0221163
-0.0223342
-0.0225382
-0.0227303
-0.0229129
-0.0230887
-0.0232601
-0.0234292
-0.0235978
-0.0237669
-0.0239371
-0.0241081
-0.0242795
-0.0244501
-0.0246188
-0.024784
-0.0249444
-0.0250987
-0.0252459
-0.0253854
-0.025517
-0.0256408
-0.0257575
-0.0258678
-0.0259726
-0.0260731
-0.02617
-0.0262639
-0.026355
-0.0264429
-0.0265266
-0.0266045
-0.0266745
-0.0267341
-0.0267806
-0.0268111
-0.0268232
-0.0268153
-0.0267863
-0.0267368
-0.0266685
-0.0265848
-0.0264908
-0.0263929
-0.026299
-0.0262176
-0.0261575
-0.0261273
-0.0261344
-0.0261843
-0.0262802
-0.0264218
-0.0266055
-0.0268239
-0.0270656
-0.0273162
-0.0275582
-0.0277727
-0.0279399
-0.0280411
-0.0280601
-0.0279843
-0.0278062
-0.0275247
-0.0271452
-0.0266801
-0.0261479
-0.025572
-0.0249793
-0.0243971
-0.0238509
-0.023361
-0.0229396
-0.0225883
-0.0222957
-0.0220363
-0.0217711
-0.0214483
-0.0210071
-0.0203817
-0.0195072
-0.0183272
-0.0168009
-0.0149113
-0.0126728
-0.010137
-0.00739722
-0.00458998
-0.00189316
0.000479545
0.0022883
0.00328078
0.00320957
0.00185245
-0.000965512
-0.00534935
-0.011313
-0.0187616
-0.0274781
-0.0371185
-0.0472142
-0.0571854
-0.0663635
-0.0740249
-0.0794326
-0.0818847
-0.0807666
-0.0756038
-0.0661099
-0.0522271
-0.0341531
-0.0123535
0.0124461
0.039286
0.067019
0.0943732
0.120028
0.1427
0.161224
0.174638
0.182246
0.183671
0.178877
0.168173
0.152191
0.131836
0.108222
0.0825982
0.0562586
0.0304639
0.00636277
-0.0150717
-0.0330896
-0.0471931
-0.0571466
-0.0629674
-0.0649013
-0.0633844
-0.0589968
-0.0524102
-0.044336
-0.035476
-0.0264788
-0.0179053
-0.0102037
-0.00369536
0.00142926
0.00510514
0.00737939
0.00839196
0.00835231
0.00751438
0.00615178
0.00453486
0.0029113
0.00149105
0.00043631
-0.000143326
-0.000190806
0.000302823
0.00130638
0.002759
0.00458205
0.00669119
0.00900781
0.0114687
0.0140333
0.016688
0.0194476
0.022353
0.0254668
0.0288657
0.0326317
0.0368416
0.0415572
0.0468152
0.0526188
0.0589317
0.0656745
0.0727238
0.0799151
0.0870481
0.0938954
0.100213
0.105752
0.110274
0.113562
0.115433
0.115751
0.114433
0.111457
0.106862
0.100748
0.0932736
0.0846442
0.0751061
0.0649328
0.0544126
0.0438346
0.0334761
0.0235906
0.0143976
0.00607499
-0.00124635
-0.0074849
-0.0126083
-0.0166305
-0.0196067
-0.021627
-0.0228079
-0.0232843
-0.0232005
-0.0227021
-0.0219283
-0.0210062
-0.0200456
-0.019136
-0.018345
-0.0177175
-0.0172779
-0.0170312
-0.0169669
-0.017062
-0.0172847
-0.0175988
-0.0179664
-0.0183512
-0.0187211
-0.0190498
-0.0193177
-0.019513
-0.0196309
-0.0196732
-0.0196476
-0.0195658
-0.0194427
-0.0192947
-0.0191384
-0.0189896
-0.0188619
-0.0187667
-0.0187121
-0.0187033
-0.0187423
-0.0188283
-0.0189583
-0.0191274
-0.0193294
-0.0195576
-0.019805
-0.020065
-0.0203318
-0.0206004
-0.0208669
-0.0211286
-0.0213836
-0.0216312
-0.0218712
-0.0221039
-0.0223301
-0.0225502
-0.022765
-0.0229748
-0.0231795
-0.023379
-0.0235727
-0.0237596
-0.0239388
-0.0241094
-0.0242703
-0.0244208
-0.0245605
-0.0246892
-0.0248073
-0.0249154
-0.0250145
-0.025106
-0.0251916
-0.0252731
-0.0253522
-0.0254308
-0.0255106
-0.0255927
-0.0256783
-0.0257676
-0.0258606
-0.0259565
-0.026054
-0.026151
-0.026245
-0.0263331
-0.0264119
-0.026478
-0.0265282
-0.0265594
-0.0265695
-0.0265569
-0.0265215
-0.0264645
-0.0263885
-0.0262979
-0.0261986
-0.0260979
-0.0260043
-0.0259269
-0.0258751
-0.0258578
-0.0258828
-0.0259557
-0.0260797
-0.0262544
-0.0264759
-0.0267357
-0.0270216
-0.0273171
-0.0276027
-0.0278561
-0.0280544
-0.0281744
-0.0281955
-0.0281004
-0.0278771
-0.0275205
-0.0270331
-0.0264256
-0.025717
-0.0249333
-0.0241066
-0.023272
-0.0224657
-0.0217209
-0.0210649
-0.0205154
-0.0200778
-0.0197427
-0.0194849
-0.0192635
-0.0190239
-0.0187006
-0.0182227
-0.0175203
-0.0165315
-0.0152117
-0.0135411
-0.011533
-0.00924021
-0.00675913
-0.0042311
-0.00184003
0.000194029
0.00162572
0.00219947
0.00166828
-0.000184455
-0.0035216
-0.00842887
-0.0148933
-0.0227859
-0.0318498
-0.0416972
-0.0518152
-0.061582
-0.0702944
-0.0772048
-0.081567
-0.0826879
-0.079982
-0.0730244
-0.0615981
-0.0457315
-0.025721
-0.00213695
0.024191
0.0522082
0.0806883
0.108304
0.133706
0.155615
0.172902
0.18467
0.190315
0.189568
0.182515
0.169589
0.151536
0.129364
0.104268
0.0775523
0.0505396
0.0244911
0.000530873
-0.0204146
-0.0376588
-0.0507787
-0.0596187
-0.0642759
-0.0650705
-0.062504
-0.0572089
-0.0498957
-0.0412997
-0.0321318
-0.0230369
-0.0145605
-0.00712637
-0.0010247
0.00358935
0.00668802
0.00835556
0.00876724
0.0081647
0.00682994
0.00505977
0.00314244
0.0013379
-0.000137405
-0.00112078
-0.00150818
-0.00125422
-0.000367704
0.00109646
0.00304808
0.00537419
0.00795208
0.0106621
0.0133988
0.0160809
0.0186575
0.0211121
0.023464
0.0257651
0.028096
0.030558
0.0332644
0.0363301
0.0398612
0.0439443
0.0486375
0.0539623
0.0598983
0.0663797
0.0732956
0.0804919
0.0877769
0.0949295
0.101709
0.107865
0.113153
0.117343
0.120237
0.121672
0.121535
0.119769
0.116372
0.111404
0.104977
0.0972595
0.0884591
0.0788189
0.0686042
0.0580903
0.0475509
0.0372459
0.0274116
0.0182512
0.00992895
0.00256513
-0.00376539
-0.00903281
-0.0132497
-0.0164662
-0.0187642
-0.0202501
-0.0210471
-0.0212873
-0.0211048
-0.0206284
-0.0199764
-0.0192522
-0.018541
-0.0179087
-0.0174007
-0.0170439
-0.0168474
-0.0168058
-0.0169019
-0.0171102
-0.0174
-0.0177387
-0.0180947
-0.0184392
-0.0187483
-0.019004
-0.0191948
-0.0193154
-0.0193667
-0.0193545
-0.0192888
-0.0191825
-0.0190499
-0.0189059
-0.0187647
-0.0186389
-0.0185391
-0.0184731
-0.018446
-0.0184605
-0.0185163
-0.0186113
-0.0187415
-0.0189019
-0.0190864
-0.0192891
-0.019504
-0.0197257
-0.0199495
-0.0201717
-0.0203896
-0.0206013
-0.0208063
-0.0210044
-0.0211965
-0.0213837
-0.0215676
-0.0217498
-0.0219321
-0.022116
-0.0223028
-0.0224933
-0.0226881
-0.0228873
-0.0230904
-0.0232966
-0.0235046
-0.0237129
-0.0239196
-0.0241225
-0.0243195
-0.0245082
-0.0246865
-0.0248523
-0.0250039
-0.02514
-0.0252597
-0.0253626
-0.0254489
-0.0255196
-0.0255761
-0.0256204
-0.0256552
-0.0256833
-0.025708
-0.0257325
-0.0257601
-0.0257937
-0.0258357
-0.0258878
-0.0259509
-0.0260249
-0.0261086
-0.0261997
-0.0262949
-0.0263901
-0.0264804
-0.0265603
-0.0266246
-0.026668
-0.0266863
-0.0266763
-0.0266364
-0.026567
-0.0264707
-0.0263524
-0.0262194
-0.026081
-0.0259483
-0.0258335
-0.0257492
-0.0257073
-0.0257183
-0.0257901
-0.0259269
-0.0261288
-0.0263904
-0.0267013
-0.0270453
-0.0274013
-0.0277437
-0.0280438
-0.0282717
-0.0283973
-0.0283934
-0.0282371
-0.0279122
-0.0274111
-0.0267356
-0.0258985
-0.0249229
-0.0238418
-0.0226963
-0.0215334
-0.0204024
-0.0193514
-0.0184232
-0.0176512
-0.0170557
-0.0166404
-0.016391
-0.0162739
-0.0162374
-0.0162145
-0.0161271
-0.0158927
-0.0154323
-0.0146787
-0.0135866
-0.0121411
-0.0103662
-0.00833096
-0.00615219
-0.00399442
-0.00206489
-0.000604099
0.000128431
-0.000127235
-0.00160932
-0.00450987
-0.00894974
-0.0149549
-0.0224361
-0.0311748
-0.0408167
-0.0508746
-0.0607427
-0.0697217
-0.0770547
-0.081973
-0.0837479
-0.0817472
-0.0754904
-0.0647
-0.0493422
-0.0296548
-0.00615695
0.0203606
0.048866
0.0781377
0.106832
0.133564
0.156998
0.175933
0.189389
0.196671
0.19742
0.191638
0.179685
0.162252
0.140313
0.115055
0.0877936
0.0598896
0.0326592
0.00729656
-0.0151919
-0.0340363
-0.0487322
-0.0590496
-0.0650232
-0.0669252
-0.0652259
-0.0605441
-0.0535935
-0.045128
-0.0358898
-0.0265647
-0.0177454
-0.00990575
-0.00338494
0.00161677
0.0050331
0.00691841
0.00742798
0.00679405
0.00529966
0.0032524
0.000959712
-0.00129261
-0.00325785
-0.00474088
-0.00560564
-0.00577749
-0.00524112
-0.00403433
-0.00223885
3.10852e-005
0.00264136
0.00545083
0.00832357
0.0111398
0.0138047
0.0162553
0.018464
0.02044
0.0222279
0.0239034
0.0255679
0.0273399
0.0293469
0.031715
0.0345597
0.0379765
0.0420323
0.0467592
0.052149
0.0581509
0.0646706
0.071573
0.0786859
0.0858072
0.0927132
0.0991681
0.104935
0.109789
0.113524
0.115967
0.116985
0.11649
0.114449
0.110879
0.105853
0.0994918
0.0919615
0.0834647
0.0742316
0.0645094
0.0545519
0.0446083
0.0349133
0.0256783
0.0170838
0.00927387
0.00235312
-0.00361491
-0.00860677
-0.0126364
-0.015751
-0.0180252
-0.0195549
-0.0204506
-0.0208301
-0.0208126
-0.0205127
-0.0200356
-0.0194731
-0.0189017
-0.0183803
-0.0179509
-0.0176385
-0.0174535
-0.0173933
-0.0174453
-0.0175895
-0.0178014
-0.0180549
-0.0183243
-0.0185864
-0.0188217
-0.0190158
-0.0191593
-0.0192482
-0.0192832
-0.0192693
-0.0192145
-0.0191293
-0.0190252
-0.018914
-0.018807
-0.0187139
-0.0186429
-0.0185996
-0.0185876
-0.0186084
-0.0186614
-0.0187443
-0.0188536
-0.018985
-0.019134
-0.019296
-0.0194666
-0.0196425
-0.0198208
-0.0199996
-0.0201781
-0.020356
-0.0205339
-0.0207127
-0.0208937
-0.0210781
-0.0212674
-0.0214623
-0.0216634
-0.0218707
-0.0220839
-0.022302
-0.0225237
-0.0227473
-0.022971
-0.0231929
-0.023411
-0.0236237
-0.0238293
-0.0240266
-0.0242148
-0.0243931
-0.0245613
-0.0247191
-0.0248667
-0.0250042
-0.0251318
-0.0252498
-0.0253585
-0.025458
-0.0255487
-0.0256308
-0.0257047
-0.025771
-0.0258304
-0.0258837
-0.0259321
-0.025977
-0.0260199
-0.0260625
-0.0261065
-0.0261534
-0.0262047
-0.0262612
-0.0263234
-0.0263909
-0.0264627
-0.0265368
-0.0266105
-0.0266804
-0.0267425
-0.0267925
-0.0268264
-0.0268402
-0.0268313
-0.026798
-0.0267403
-0.0266605
-0.0265625
-0.0264528
-0.0263395
-0.0262327
-0.0261431
-0.0260822
-0.0260607
-0.0260877
-0.0261698
-0.0263102
-0.0265075
-0.0267556
-0.0270428
-0.0273525
-0.027663
-0.0279487
-0.0281815
-0.0283324
-0.0283732
-0.0282791
-0.0280304
-0.0276148
-0.0270287
-0.0262788
-0.0253821
-0.0243662
-0.0232674
-0.0221293
-0.0209995
-0.0199265
-0.0189556
-0.0181247
-0.0174601
-0.0169737
-0.0166596
-0.016493
-0.0164307
-0.0164124
-0.0163646
-0.0162063
-0.0158564
-0.0152416
-0.0143062
-0.0130213
-0.0113935
-0.00947212
-0.0073534
-0.00518201
-0.003148
-0.00147924
-0.00042916
-0.000259811
-0.001221
-0.00352657
-0.00732928
-0.0126962
-0.0195869
-0.0278362
-0.0371446
-0.047077
-0.0570726
-0.0664655
-0.0745163
-0.0804548
-0.0835293
-0.0830619
-0.0785054
-0.069496
-0.0558993
-0.0378438
-0.0157382
0.00973073
0.0376201
0.0667746
0.095888
0.12358
0.148483
0.169333
0.185051
0.194824
0.198156
0.194906
0.185296
0.169894
0.149571
0.125441
0.0987821
0.0709493
0.0432879
0.0170504
-0.00667499
-0.02702
-0.0433732
-0.0553968
-0.0630241
-0.0664387
-0.0660394
-0.0623942
-0.0561874
-0.048165
-0.039081
-0.0296497
-0.0205055
-0.0121724
-0.00504437
0.000623312
0.00471279
0.00723335
0.00830393
0.00813055
0.00698069
0.00515678
0.00297057
0.000720082
-0.00132958
-0.00296089
-0.00401341
-0.00438822
-0.00404749
-0.00300979
-0.00134191
0.000851941
0.00344251
0.00628853
0.00924948
0.0121973
0.015026
0.01766
0.0200583
0.0222172
0.02417
0.0259834
0.0277523
0.0295924
0.0316312
0.0339987
0.036817
0.0401906
0.0441976
0.0488819
0.0542478
0.060256
0.0668225
0.0738202
0.0810821
0.0884081
0.0955727
0.102335
0.10845
0.113681
0.117807
0.12064
0.12203
0.121874
0.12012
0.116774
0.111897
0.1056
0.0980464
0.0894369
0.0800047
0.0700034
0.0596962
0.0493446
0.0391973
0.0294807
0.0203908
0.0120868
0.00468704
-0.00173265
-0.00713879
-0.0115378
-0.0149719
-0.0175133
-0.0192581
-0.0203189
-0.0208177
-0.0208789
-0.0206234
-0.0201631
-0.0195967
-0.0190069
-0.0184585
-0.0179984
-0.0176559
-0.0174443
-0.0173634
-0.0174017
-0.01754
-0.0177538
-0.0180165
-0.0183016
-0.0185849
-0.0188459
-0.0190689
-0.0192432
-0.0193636
-0.0194296
-0.019445
-0.0194168
-0.0193545
-0.0192687
-0.0191709
-0.0190717
-0.018981
-0.0189069
-0.0188561
-0.0188328
-0.0188396
-0.0188773
-0.0189451
-0.0190411
-0.0191624
-0.0193054
-0.0194667
-0.0196424
-0.0198291
-0.0200237
-0.0202235
-0.0204264
-0.0206305
-0.0208347
-0.0210381
-0.0212399
-0.0214398
-0.0216377
-0.0218335
-0.0220272
-0.022219
-0.0224089
-0.0225974
-0.0227846
-0.0229708
-0.0231564
-0.0233416
-0.0235265
-0.0237113
-0.0238957
-0.0240795
-0.024262
-0.0244425
-0.0246198
-0.0247927
-0.0249596
-0.0251191
-0.0252694
-0.025409
-0.0255367
-0.0256515
-0.0257528
-0.0258407
-0.0259155
-0.0259785
-0.0260314
-0.0260764
-0.0261161
-0.0261534
-0.0261912
-0.0262324
-0.0262795
-0.0263345
-0.0263985
-0.026472
-0.0265543
-0.0266435
-0.026737
-0.026831
-0.0269211
-0.0270021
-0.027069
-0.0271166
-0.0271406
-0.0271377
-0.0271058
-0.027045
-0.0269572
-0.0268467
-0.02672
-0.0265859
-0.0264548
-0.0263384
-0.026249
-0.0261987
-0.026198
-0.0262557
-0.0263769
-0.0265627
-0.0268094
-0.0271079
-0.0274435
-0.0277963
-0.0281418
-0.0284521
-0.028697
-0.0288461
-0.0288708
-0.0287467
-0.0284551
-0.0279857
-0.0273376
-0.0265205
-0.0255548
-0.0244715
-0.0233103
-0.0221178
-0.0209441
-0.0198395
-0.0188502
-0.0180141
-0.0173571
-0.0168892
-0.0166025
-0.0164696
-0.0164442
-0.016463
-0.0164499
-0.0163217
-0.0159954
-0.0153973
-0.0144721
-0.0131923
-0.0115671
-0.00964937
-0.0075395
-0.00538672
-0.00338554
-0.00176771
-0.00078945
-0.000713977
-0.00179022
-0.00422876
-0.00817655
-0.0136924
-0.0207251
-0.0290976
-0.0384968
-0.0484746
-0.0584579
-0.0677708
-0.0756676
-0.0813756
-0.0841461
-0.0833098
-0.0783334
-0.0688725
-0.0548162
-0.0363194
-0.0138183
0.0119735
0.0400891
0.0693541
0.0984496
0.125991
0.150614
0.171066
0.186291
0.1955
0.198229
0.194371
0.18418
0.168255
0.147494
0.12303
0.0961513
0.0682178
0.0405703
0.0144498
-0.00907263
-0.0291502
-0.0451954
-0.0568947
-0.0642045
-0.0673288
-0.0666831
-0.0628474
-0.0565131
-0.0484283
-0.0393448
-0.029971
-0.0209321
-0.0127412
-0.00578066
-0.000293793
0.00361241
0.00595654
0.00686482
0.00654824
0.00527686
0.00335345
0.00108816
-0.0012241
-0.00332239
-0.00499387
-0.0060828
-0.00649455
-0.00619486
-0.00520486
-0.00359285
-0.00146354
0.0010542
0.0038201
0.00669494
0.00955189
0.0122861
0.0148219
0.0171179
0.019169
0.0210058
0.0226918
0.0243181
0.0259964
0.0278509
0.0300086
0.03259
0.0356999
0.0394189
0.0437958
0.048842
0.0545282
0.0607824
0.0674908
0.0745015
0.0816291
0.0886629
0.095375
0.101531
0.106901
0.11127
0.114448
0.11628
0.116653
0.115505
0.112823
0.108647
0.10307
0.0962292
0.0883055
0.0795111
0.0700814
0.0602651
0.0503125
0.0404661
0.0309505
0.0219642
0.0136731
0.00620607
-0.000348203
-0.0059412
-0.0105634
-0.0142408
-0.0170307
-0.0190154
-0.0202961
-0.020986
-0.0212038
-0.0210673
-0.0206882
-0.0201674
-0.0195918
-0.019032
-0.0185415
-0.0181565
-0.017897
-0.0177686
-0.0177649
-0.01787
-0.0180616
-0.0183138
-0.0185994
-0.0188923
-0.0191695
-0.0194122
-0.0196066
-0.0197441
-0.0198218
-0.0198414
-0.0198086
-0.0197324
-0.019624
-0.0194957
-0.01936
-0.0192289
-0.0191127
-0.0190203
-0.0189582
-0.0189309
-0.0189404
-0.0189869
-0.0190685
-0.0191823
-0.0193241
-0.019489
-0.0196719
-0.0198679
-0.0200722
-0.0202807
-0.0204899
-0.0206971
-0.0209005
-0.0210989
-0.0212918
-0.0214793
-0.0216621
-0.0218411
-0.0220174
-0.0221924
-0.0223673
-0.0225432
-0.0227211
-0.0229017
-0.0230855
-0.0232726
-0.0234628
-0.0236553
-0.0238496
-0.0240442
-0.024238
-0.0244293
-0.0246167
-0.0247984
-0.0249728
-0.0251386
-0.0252945
-0.0254394
-0.0255724
-0.0256931
-0.0258012
-0.0258967
-0.02598
-0.0260518
-0.0261128
-0.0261645
-0.026208
-0.0262452
-0.0262777
-0.0263077
-0.0263371
-0.0263681
-0.0264025
-0.0264421
-0.0264883
-0.0265421
-0.0266036
-0.0266725
-0.0267474
-0.0268263
-0.0269061
-0.0269831
-0.0270532
-0.0271115
-0.0271536
-0.0271752
-0.027173
-0.0271447
-0.02709
-0.0270102
-0.0269091
-0.0267927
-0.0266691
-0.0265483
-0.0264419
-0.0263618
-0.02632
-0.0263274
-0.0263924
-0.0265203
-0.0267122
-0.0269641
-0.0272665
-0.0276042
-0.0279566
-0.0282982
-0.0285996
-0.0288296
-0.0289564
-0.0289501
-0.0287851
-0.0284419
-0.0279097
-0.0271877
-0.0262862
-0.0252272
-0.0240437
-0.0227786
-0.0214821
-0.0202088
-0.0190138
-0.0179487
-0.0170568
-0.016369
-0.0158999
-0.0156452
-0.0155798
-0.0156581
-0.0158154
-0.0159725
-0.0160403
-0.0159284
-0.0155535
-0.0148491
-0.0137758
-0.0123304
-0.0105538
-0.00853594
-0.00641752
-0.00438752
-0.00267578
-0.00154061
-0.00125173
-0.00206891
-0.00421764
-0.00786329
-0.0130856
-0.0198561
-0.0280198
-0.0372849
-0.047221
-0.0572683
-0.0667579
-0.0749438
-0.081045
-0.0842962
-0.0840033
-0.0796013
-0.0707081
-0.0571718
-0.0391055
-0.0169053
0.00874969
0.0369198
0.0664466
0.0960152
0.124231
0.149705
0.171149
0.187459
0.197789
0.201617
0.198774
0.189461
0.174228
0.153936
0.129698
0.102796
0.0745999
0.0464733
0.0196939
-0.00462222
-0.0255771
-0.0425303
-0.0551171
-0.0632477
-0.0670876
-0.0670232
-0.0636163
-0.0575512
-0.0495793
-0.0404653
-0.0309378
-0.0216482
-0.0131391
-0.0058235
2.55101e-005
0.00427399
0.00691788
0.00806612
0.00791847
0.00674001
0.00483459
0.00251892
9.91481e-005
-0.00214902
-0.00399561
-0.0052667
-0.00584975
-0.00569399
-0.00480667
-0.00324564
-0.00110934
0.00147496
0.00436377
0.00740985
0.0104739
0.0134348
0.0161975
0.0186993
0.020913
0.0228479
0.0245478
0.026088
0.0275689
0.0291091
0.0308374
0.0328835
0.0353693
0.0383998
0.0420557
0.0463864
0.0514046
0.0570833
0.063354
0.0701076
0.0771974
0.0844438
0.0916409
0.0985655
0.104986
0.110672
0.115406
0.118993
0.12127
0.122113
0.121443
0.119234
0.115507
0.110337
0.103847
0.0961998
0.0875952
0.0782589
0.0684331
0.0583662
0.0483026
0.0384729
0.0290853
0.0203184
0.0123162
0.00518425
-0.0010116
-0.00624442
-0.0105239
-0.0138924
-0.0164195
-0.0181962
-0.0193284
-0.01993
-0.0201169
-0.0200012
-0.0196865
-0.0192641
-0.0188103
-0.0183851
-0.0180314
-0.0177764
-0.0176323
-0.0175988
-0.0176653
-0.017814
-0.0180226
-0.0182666
-0.0185219
-0.0187666
-0.0189824
-0.0191559
-0.0192785
-0.0193469
-0.0193624
-0.0193306
-0.0192598
-0.019161
-0.0190459
-0.0189266
-0.018814
-0.0187179
-0.018646
-0.0186035
-0.0185936
-0.0186167
-0.0186716
-0.0187552
-0.0188634
-0.0189913
-0.0191337
-0.0192859
-0.0194434
-0.0196028
-0.0197617
-0.0199185
-0.0200728
-0.0202251
-0.0203764
-0.0205284
-0.0206828
-0.0208414
-0.0210059
-0.0211773
-0.0213566
-0.0215439
-0.0217388
-0.0219405
-0.0221477
-0.0223589
-0.0225722
-0.0227858
-0.0229979
-0.023207
-0.0234115
-0.0236104
-0.023803
-0.0239888
-0.0241676
-0.0243393
-0.024504
-0.0246618
-0.0248127
-0.0249567
-0.0250936
-0.0252229
-0.0253442
-0.0254568
-0.0255599
-0.0256532
-0.025736
-0.0258082
-0.0258701
-0.0259222
-0.0259657
-0.0260019
-0.026033
-0.0260611
-0.0260887
-0.0261181
-0.0261515
-0.0261907
-0.0262369
-0.0262903
-0.0263504
-0.0264155
-0.0264831
-0.0265495
-0.0266106
-0.0266617
-0.0266979
-0.0267149
-0.0267089
-0.0266776
-0.0266201
-0.0265378
-0.0264339
-0.0263143
-0.0261869
-0.0260616
-0.0259496
-0.025863
-0.0258136
-0.0258122
-0.0258674
-0.0259845
-0.0261647
-0.0264044
-0.0266944
-0.02702
-0.0273611
-0.027693
-0.0279873
-0.0282139
-0.0283421
-0.0283436
-0.028194
-0.0278752
-0.0273777
-0.0267014
-0.0258572
-0.024867
-0.0237629
-0.0225861
-0.0213841
-0.020208
-0.0191086
-0.018132
-0.0173157
-0.0166844
-0.0162469
-0.0159931
-0.0158936
-0.0158995
-0.0159452
-0.0159527
-0.0158369
-0.0155142
-0.0149105
-0.0139714
-0.0126715
-0.0110225
-0.00908089
-0.0069514
-0.00478769
-0.00278866
-0.00118992
-0.000250498
-0.000235023
-0.00139201
-0.00392955
-0.00798991
-0.0136251
-0.0207752
-0.029253
-0.0387344
-0.0487605
-0.0587479
-0.0680126
-0.0758031
-0.0813448
-0.0838908
-0.0827785
-0.0774854
-0.0676819
-0.0532757
-0.0344422
-0.0116396
0.0143974
0.0426828
0.0720266
0.1011
0.128513
0.152905
0.173032
0.187853
0.1966
0.198835
0.194476
0.183807
0.16745
0.146326
0.121585
0.0945285
0.0665195
0.0388979
0.012897
-0.010425
-0.0302379
-0.0459736
-0.0573394
-0.0643117
-0.0671133
-0.0661758
-0.0620916
-0.0555609
-0.0473362
-0.0381697
-0.0287661
-0.0197445
-0.0116087
-0.00473043
0.00065832
0.00446201
0.00670983
0.00753719
0.00716229
0.0058601
0.00393581
0.00169946
-0.000556557
-0.00257595
-0.00415223
-0.00513728
-0.00544477
-0.00504873
-0.00397803
-0.0023075
-0.000146575
0.00237344
0.00511247
0.00793442
0.0107185
0.0133686
0.0158204
0.0180456
0.0200535
0.021889
0.0236295
0.0253777
0.0272542
0.0293878
0.0319054
0.034922
0.0385308
0.042795
0.0477406
0.0533517
0.0595675
0.0662831
0.0733513
0.080588
0.0877795
0.0946915
0.10108
0.106703
0.111332
0.114763
0.116826
0.117398
0.116403
0.113822
0.10969
0.104097
0.0971846
0.0891378
0.0801768
0.0705473
0.0605096
0.0503265
0.0402529
0.030525
0.0213518
0.0129075
0.00532694
-0.00129735
-0.00691578
-0.01152
-0.0151395
-0.0178364
-0.0196996
-0.0208373
-0.0213704
-0.0214248
-0.0211253
-0.0205896
-0.0199236
-0.0192182
-0.0185465
-0.0179635
-0.0175057
-0.0171926
-0.0170283
-0.0170045
-0.0171032
-0.0172993
-0.0175643
-0.0178685
-0.0181834
-0.018484
-0.0187494
-0.0189646
-0.0191201
-0.019212
-0.0192419
-0.0192155
-0.0191423
-0.0190341
-0.0189041
-0.0187658
-0.0186321
-0.0185145
-0.0184229
-0.0183646
-0.0183447
-0.0183655
-0.0184274
-0.0185284
-0.0186652
-0.018833
-0.0190262
-0.019239
-0.0194653
-0.0196998
-0.0199376
-0.0201745
-0.0204075
-0.0206346
-0.0208545
-0.0210673
-0.0212732
-0.0214736
-0.0216698
-0.0218637
-0.0220569
-0.0222509
-0.0224469
-0.0226458
-0.0228479
-0.0230528
-0.0232599
-0.0234681
-0.0236757
-0.023881
-0.0240821
-0.0242769
-0.0244637
-0.0246407
-0.0248066
-0.0249604
-0.0251017
-0.0252302
-0.0253464
-0.0254511
-0.0255454
-0.0256309
-0.0257092
-0.0257821
-0.0258514
-0.0259186
-0.025985
-0.0260513
-0.0261178
-0.0261841
-0.0262491
-0.0263111
-0.0263678
-0.0264164
-0.026454
-0.0264776
-0.0264846
-0.0264728
-0.0264411
-0.0263897
-0.0263202
-0.0262357
-0.0261414
-0.0260434
-0.0259498
-0.0258691
-0.0258105
-0.0257828
-0.0257936
-0.0258489
-0.0259521
-0.0261031
-0.0262983
-0.02653
-0.0267864
-0.0270521
-0.0273083
-0.0275345
-0.027709
-0.0278111
-0.0278219
-0.0277267
-0.0275159
-0.0271867
-0.0267434
-0.0261981
-0.0255699
-0.0248843
-0.0241713
-0.0234626
-0.0227894
-0.0221788
-0.0216504
-0.0212136
-0.020865
-0.0205865
-0.0203451
-0.0200937
-0.0197732
-0.0193172
-0.0186568
-0.0177279
-0.0164787
-0.014878
-0.0129231
-0.0106467
-0.00812234
-0.00546725
-0.00284205
-0.000446699
0.00148766
0.00271102
0.00297078
0.00203147
-0.000303256
-0.0041676
-0.00961125
-0.0165796
-0.0248988
-0.0342671
-0.0442545
-0.0543129
-0.0637954
-0.0719867
-0.0781433
-0.08154
-0.0815227
-0.0775618
-0.0693028
-0.0566104
-0.0396006
-0.0186577
0.00556616
0.0321723
0.0600556
0.0879635
0.114569
0.138555
0.158699
0.173957
0.183537
0.186952
0.184058
0.175058
0.160493
0.141196
0.118235
0.0928369
0.0663044
0.0399309
0.0149204
-0.00768168
-0.0270419
-0.0425744
-0.0539572
-0.0611286
-0.0642677
-0.0637593
-0.0601494
-0.0540943
-0.046307
-0.0375062
-0.0283701
-0.0194982
-0.0113831
-0.00439194
0.00124048
0.00540958
0.0081298
0.00951684
0.00976512
0.00912272
0.00786582
0.00627454
0.00461178
0.00310621
0.00194023
0.00124312
0.00108937
0.00150172
0.00245815
0.00390182
0.00575293
0.00792133
0.0103187
0.0128694
0.0155191
0.0182408
0.0210372
0.0239405
0.0270082
0.0303169
0.0339536
0.0380053
0.0425482
0.0476374
0.053297
0.0595126
0.0662259
0.0733329
0.0806845
0.088091
0.0953292
0.102153
0.108304
0.113528
0.117585
0.120265
0.121402
0.120879
0.11864
0.114693
0.10911
0.102025
0.0936255
0.0841486
0.0738648
0.0630672
0.052057
0.0411303
0.0305645
0.0206069
0.0114655
0.00330224
-0.00377139
-0.0096953
-0.0144593
-0.018099
-0.02069
-0.0223401
-0.0231805
-0.0233575
-0.0230228
-0.0223262
-0.0214078
-0.0203923
-0.0193854
-0.0184702
-0.017707
-0.0171333
-0.0167653
-0.0166011
-0.0166236
-0.0168044
-0.0171078
-0.0174944
-0.0179246
-0.0183615
-0.018773
-0.0191337
-0.0194254
-0.0196376
-0.0197673
-0.0198179
-0.0197984
-0.0197219
-0.019604
-0.0194618
-0.0193123
-0.0191713
-0.0190526
-0.0189673
-0.0189236
-0.0189264
-0.0189774
-0.019076
-0.0192189
-0.0194012
-0.0196167
-0.0198586
-0.0201198
-0.0203937
-0.0206741
-0.0209558
-0.0212347
-0.0215075
-0.0217723
-0.0220278
-0.0222737
-0.02251
-0.0227375
-0.0229568
-0.0231686
-0.0233738
-0.0235726
-0.0237653
-0.0239518
-0.0241317
-0.0243047
-0.0244701
-0.0246273
-0.0247759
-0.0249157
-0.0250466
-0.0251692
-0.025284
-0.0253922
-0.0254952
-0.0255945
-0.0256917
-0.0257883
-0.0258856
-0.0259844
-0.0260851
-0.0261872
-0.0262895
-0.0263904
-0.0264871
-0.0265766
-0.0266556
-0.0267204
-0.0267679
-0.0267953
-0.0268009
-0.026784
-0.0267457
-0.0266885
-0.0266165
-0.0265357
-0.0264531
-0.0263771
-0.0263162
-0.0262788
-0.0262728
-0.026304
-0.0263763
-0.0264906
-0.0266444
-0.0268319
-0.0270433
-0.0272657
-0.0274834
-0.027679
-0.0278341
-0.027931
-0.0279539
-0.0278903
-0.0277327
-0.0274788
-0.027133
-0.0267061
-0.0262148
-0.025681
-0.0251299
-0.0245877
-0.0240788
-0.0236233
-0.0232337
-0.0229121
-0.0226484
-0.0224187
-0.0221854
-0.0218982
-0.0214972
-0.0209165
-0.0200907
-0.0189612
-0.0174838
-0.015637
-0.0134292
-0.0109054
-0.00815178
-0.00529753
-0.00251407
-1.00219e-005
0.0019777
0.00319681
0.00339632
0.00234642
-0.000139714
-0.00418331
-0.00981841
-0.0169732
-0.025456
-0.0349483
-0.0450059
-0.0550696
-0.0644865
-0.072541
-0.0784949
-0.0816353
-0.0813254
-0.0770583
-0.0685057
-0.0555602
-0.0383657
-0.0173323
0.00686661
0.0333173
0.0609075
0.0883868
0.11444
0.13777
0.157184
0.171673
0.180486
0.183176
0.179639
0.170116
0.155174
0.135667
0.11267
0.0874101
0.0611765
0.0352407
0.0107774
-0.0112027
-0.0299033
-0.0447759
-0.0555327
-0.0621421
-0.0648063
-0.0639263
-0.0600563
-0.0538529
-0.0460225
-0.0372714
-0.028261
-0.0195712
-0.0116738
-0.00491598
0.000485902
0.00444233
0.00697902
0.00821867
0.00835835
0.00764473
0.00634912
0.00474415
0.00308356
0.00158629
0.000425362
-0.000277939
-0.000455036
-8.64618e-005
0.000805393
0.00216625
0.00392155
0.00598847
0.00828751
0.0107524
0.0133379
0.0160245
0.0188207
0.021761
0.0249022
0.0283164
0.0320822
0.0362751
0.0409571
0.0461667
0.051911
0.0581588
0.0648366
0.0718276
0.0789742
0.0860823
0.0929301
0.0992776
0.104879
0.109497
0.112913
0.114942
0.115442
0.114325
0.11156
0.107179
0.101273
0.0939895
0.0855282
0.0761275
0.0660555
0.0555963
0.0450371
0.0346553
0.0247061
0.015413
0.00695916
-0.000517912
-0.00692926
-0.0122346
-0.0164399
-0.0195931
-0.0217771
-0.0231032
-0.0237016
-0.0237138
-0.0232841
-0.0225518
-0.0216457
-0.0206784
-0.0197429
-0.0189111
-0.0182329
-0.0177371
-0.0174335
-0.0173154
-0.0173631
-0.0175475
-0.0178339
-0.018185
-0.0185646
-0.0189397
-0.0192825
-0.0195717
-0.0197931
-0.0199399
-0.0200117
-0.020014
-0.0199571
-0.0198546
-0.019722
-0.0195757
-0.0194313
-0.0193033
-0.0192035
-0.0191413
-0.019123
-0.0191516
-0.0192276
-0.0193487
-0.0195108
-0.0197079
-0.0199332
-0.0201797
-0.0204402
-0.020708
-0.0209773
-0.0212435
-0.0215029
-0.0217532
-0.0219934
-0.0222234
-0.0224438
-0.022656
-0.0228618
-0.0230631
-0.0232615
-0.0234585
-0.023655
-0.0238514
-0.0240474
-0.0242423
-0.0244347
-0.0246228
-0.0248047
-0.0249782
-0.0251415
-0.0252929
-0.0254312
-0.0255557
-0.0256663
-0.0257638
-0.0258493
-0.0259247
-0.0259923
-0.0260545
-0.0261142
-0.0261738
-0.0262357
-0.0263019
-0.0263735
-0.0264512
-0.0265348
-0.026623
-0.026714
-0.0268049
-0.0268924
-0.0269726
-0.0270415
-0.027095
-0.0271295
-0.0271422
-0.0271312
-0.027096
-0.0270377
-0.0269593
-0.0268656
-0.0267632
-0.0266601
-0.0265658
-0.0264902
-0.0264434
-0.0264346
-0.0264714
-0.026559
-0.0266993
-0.0268902
-0.0271252
-0.0273934
-0.0276794
-0.0279638
-0.0282243
-0.0284368
-0.028577
-0.028622
-0.0285522
-0.0283532
-0.028017
-0.0275439
-0.0269425
-0.0262299
-0.0254313
-0.0245784
-0.023707
-0.0228547
-0.0220569
-0.0213436
-0.0207361
-0.0202434
-0.01986
-0.0195643
-0.0193189
-0.0190717
-0.0187591
-0.0183109
-0.0176567
-0.0167331
-0.0154924
-0.0139111
-0.0119977
-0.00979941
-0.00740718
-0.0049569
-0.00262765
-0.000635622
0.000776388
0.00135377
0.000848789
-0.00095766
-0.00423259
-0.00906724
-0.0154553
-0.0232748
-0.0322762
-0.0420785
-0.0521742
-0.0619455
-0.0706913
-0.0776634
-0.0821128
-0.0833409
-0.0807545
-0.0739192
-0.0626073
-0.0468358
-0.0268903
-0.00333118
0.0230195
0.0511118
0.0797211
0.107517
0.133147
0.155319
0.172892
0.184956
0.190888
0.190405
0.183577
0.170823
0.152881
0.130752
0.10563
0.0788203
0.0516546
0.0254035
0.00120375
-0.0200036
-0.0375171
-0.0508993
-0.0599812
-0.0648494
-0.0658157
-0.0633766
-0.0581631
-0.0508868
-0.0422873
-0.0330819
-0.0239236
-0.0153672
-0.00784576
-0.00165888
0.00303015
0.00618684
0.00789053
0.00831368
0.00769728
0.00632477
0.00449624
0.00250479
0.000616294
-0.000946298
-0.00201371
-0.00247581
-0.0022821
-0.00143769
4.46642e-006
0.00195416
0.00429632
0.00690416
0.00965209
0.0124274
0.0151403
0.0177309
0.0201743
0.0224816
0.0246985
0.0269011
0.0291892
0.0316773
0.0344851
0.0377265
0.0414993
0.0458757
0.0508934
0.0565497
0.0627972
0.0695428
0.0766489
0.083938
0.0911994
0.0981985
0.104688
0.110418
0.115151
0.118675
0.120809
0.121419
0.120422
0.117791
0.113559
0.107815
0.100702
0.0924099
0.0831655
0.0732239
0.0628553
0.0523335
0.041924
0.031873
0.0223981
0.0136807
0.00586083
-0.000966156
-0.00674969
-0.0114825
-0.0151967
-0.0179587
-0.0198623
-0.0210214
-0.0215626
-0.0216173
-0.0213154
-0.0207787
-0.0201163
-0.0194212
-0.0187678
-0.0182112
-0.0177872
-0.017514
-0.0173942
-0.0174173
-0.0175632
-0.0178051
-0.0181128
-0.0184554
-0.0188035
-0.0191315
-0.0194188
-0.0196501
-0.0198166
-0.019915
-0.0199472
-0.0199195
-0.0198417
-0.0197259
-0.0195852
-0.0194332
-0.0192827
-0.0191453
-0.0190308
-0.0189467
-0.0188985
-0.0188894
-0.0189205
-0.0189911
-0.019099
-0.0192411
-0.0194131
-0.0196103
-0.019828
-0.0200612
-0.0203053
-0.020556
-0.0208096
-0.0210626
-0.0213124
-0.0215566
-0.0217938
-0.0220228
-0.0222429
-0.0224541
-0.0226566
-0.0228509
-0.023038
-0.0232188
-0.0233945
-0.0235664
-0.0237355
-0.0239029
-0.0240692
-0.0242349
-0.0244001
-0.0245647
-0.0247279
-0.024889
-0.0250466
-0.0251995
-0.0253462
-0.0254851
-0.025615
-0.0257348
-0.0258437
-0.0259413
-0.0260278
-0.0261038
-0.0261705
-0.0262293
-0.0262822
-0.0263315
-0.0263795
-0.0264282
-0.0264798
-0.0265357
-0.0265968
-0.0266633
-0.0267343
-0.0268083
-0.0268827
-0.026954
-0.0270185
-0.0270717
-0.0271093
-0.0271273
-0.0271223
-0.0270923
-0.0270365
-0.0269561
-0.0268544
-0.0267367
-0.0266104
-0.0264847
-0.0263701
-0.026278
-0.0262198
-0.026206
-0.0262454
-0.026344
-0.0265041
-0.0267238
-0.026996
-0.0273086
-0.0276443
-0.0279813
-0.0282938
-0.0285538
-0.0287323
-0.0288013
-0.0287361
-0.0285171
-0.0281317
-0.0275761
-0.0268564
-0.0259889
-0.025
-0.0239249
-0.0228061
-0.02169
-0.020624
-0.0196525
-0.0188128
-0.0181314
-0.0176202
-0.0172741
-0.0170698
-0.0169653
-0.0169022
-0.0168091
-0.0166067
-0.0162152
-0.0155623
-0.0145924
-0.0132756
-0.0116169
-0.00966239
-0.00750486
-0.00528467
-0.00318744
-0.00143706
-0.000283981
1.10692e-005
-0.000802706
-0.00294294
-0.00656936
-0.0117593
-0.0184856
-0.0265989
-0.0358173
-0.0457237
-0.0557743
-0.0653176
-0.0736247
-0.0799297
-0.0834784
-0.0835826
-0.0796764
-0.0713697
-0.0584949
-0.0411423
-0.0196796
0.00524702
0.0327323
0.0616523
0.0907229
0.118575
0.14384
0.165238
0.181666
0.19227
0.19651
0.194195
0.185494
0.170927
0.15132
0.127754
0.101483
0.0738501
0.0462019
0.0198027
-0.00423711
-0.0250197
-0.0418989
-0.0544999
-0.062719
-0.0667057
-0.0668295
-0.0636349
-0.0577901
-0.050032
-0.041113
-0.0317519
-0.0225932
-0.0141751
-0.00690824
-0.00106616
0.00321524
0.00592834
0.00717724
0.00715589
0.00612278
0.00437458
0.00222038
-4.16579e-005
-0.00214391
-0.0038645
-0.00503733
-0.00555703
-0.00537904
-0.00451528
-0.00302626
-0.0010105
0.00140776
0.00409157
0.00690408
0.00972024
0.0124368
0.0149802
0.0173111
0.0194273
0.0213627
0.0231841
0.0249858
0.0268818
0.028997
0.0314569
0.0343782
0.0378585
0.0419676
0.0467402
0.0521705
0.0582093
0.0647628
0.0716949
0.0788318
0.0859681
0.0928765
0.099317
0.105049
0.109843
0.113491
0.115819
0.116692
0.116025
0.113789
0.110005
0.104753
0.0981619
0.0904052
0.0816943
0.0722678
0.0623806
0.0522928
0.0422589
0.0325167
0.0232791
0.014726
0.00699923
0.000199102
-0.00561631
-0.0104302
-0.014264
-0.0171725
-0.019238
-0.0205637
-0.0212664
-0.0214694
-0.0212962
-0.0208641
-0.0202796
-0.0196349
-0.0190051
-0.0184472
-0.0180002
-0.017686
-0.0175113
-0.0174698
-0.0175457
-0.0177162
-0.0179545
-0.0182325
-0.0185237
-0.0188041
-0.0190544
-0.0192603
-0.019413
-0.0195091
-0.0195499
-0.0195407
-0.01949
-0.0194084
-0.0193072
-0.019198
-0.0190918
-0.018998
-0.0189244
-0.0188767
-0.0188588
-0.0188723
-0.0189173
-0.0189924
-0.0190949
-0.0192217
-0.0193691
-0.0195333
-0.0197106
-0.0198979
-0.0200922
-0.0202913
-0.0204933
-0.0206971
-0.0209018
-0.0211068
-0.0213119
-0.0215169
-0.0217218
-0.0219267
-0.0221313
-0.0223357
-0.0225395
-0.0227426
-0.0229446
-0.0231451
-0.0233439
-0.0235405
-0.0237344
-0.0239252
-0.0241122
-0.0242947
-0.0244719
-0.024643
-0.0248068
-0.0249623
-0.0251083
-0.025244
-0.0253683
-0.0254807
-0.025581
-0.0256694
-0.0257467
-0.025814
-0.025873
-0.0259259
-0.0259751
-0.0260231
-0.0260723
-0.026125
-0.0261829
-0.0262472
-0.026318
-0.0263947
-0.0264757
-0.0265583
-0.026639
-0.0267138
-0.0267781
-0.0268274
-0.0268575
-0.0268649
-0.0268473
-0.026804
-0.0267361
-0.0266467
-0.0265412
-0.0264269
-0.0263127
-0.0262089
-0.0261266
-0.0260766
-0.0260687
-0.0261109
-0.0262085
-0.026363
-0.0265717
-0.0268272
-0.0271173
-0.0274251
-0.0277295
-0.0280067
-0.0282305
-0.0283751
-0.0284159
-0.0283318
-0.0281072
-0.0277333
-0.0272098
-0.0265453
-0.0257574
-0.0248728
-0.023925
-0.022953
-0.021998
-0.0211002
-0.0202952
-0.0196104
-0.0190614
-0.0186491
-0.0183582
-0.0181564
-0.017995
-0.0178119
-0.0175356
-0.0170911
-0.0164075
-0.0154255
-0.0141072
-0.0124438
-0.0104633
-0.00823678
-0.00588062
-0.00355678
-0.0014681
0.000150393
0.00104484
0.00096004
-0.000339567
-0.00304655
-0.00728634
-0.0130941
-0.0203945
-0.0289875
-0.0385403
-0.0485895
-0.0585528
-0.0677523
-0.0754477
-0.0808798
-0.0833204
-0.0821272
-0.0767985
-0.0670243
-0.0527288
-0.0340999
-0.0116023
0.0140287
0.0418134
0.0705751
0.0990038
0.125735
0.149437
0.168897
0.183106
0.191327
0.19315
0.188515
0.177722
0.161403
0.140478
0.116088
0.0895175
0.0621078
0.0351694
0.00990344
-0.0126655
-0.0317404
-0.0467838
-0.0575289
-0.0639732
-0.0663536
-0.065109
-0.0608324
-0.0542178
-0.0460061
-0.0369333
-0.0276845
-0.0188571
-0.010933
-0.00426267
0.000941201
0.0045992
0.00675283
0.00754529
0.00719792
0.0059841
0.00420293
0.00215448
0.000118003
-0.00166556
-0.00300621
-0.00377221
-0.00389234
-0.00335325
-0.00219292
-0.00049079
0.00164421
0.00408675
0.00670829
0.00938942
0.0120305
0.01456
0.0169401
0.0191692
0.0212815
0.0233435
0.0254483
0.027707
0.0302398
0.033165
0.0365885
0.040594
0.0452338
0.0505218
0.0564285
0.062879
0.0697534
0.0768899
0.084091
0.0911317
0.09777
0.103758
0.108855
0.112838
0.115517
0.11674
0.116405
0.114466
0.110932
0.105871
0.099406
0.0917078
0.0829888
0.0734922
0.0634808
0.0532253
0.0429921
0.0330324
0.0235721
0.0148037
0.0068801
-8.91336e-005
-0.00603911
-0.0109487
-0.0148376
-0.0177613
-0.0198051
-0.021077
-0.0216998
-0.021804
-0.0215203
-0.0209735
-0.0202771
-0.0195292
-0.0188098
-0.0181799
-0.0176806
-0.0173349
-0.017149
-0.0171156
-0.017216
-0.0174245
-0.0177106
-0.0180425
-0.0183894
-0.018724
-0.0190235
-0.0192709
-0.0194556
-0.0195727
-0.0196231
-0.0196125
-0.0195504
-0.0194487
-0.0193211
-0.0191813
-0.0190427
-0.0189173
-0.0188151
-0.0187438
-0.0187086
-0.0187124
-0.0187557
-0.0188373
-0.0189543
-0.0191025
-0.0192774
-0.0194737
-0.0196865
-0.0199109
-0.0201426
-0.020378
-0.020614
-0.0208481
-0.0210788
-0.0213047
-0.0215253
-0.0217401
-0.0219493
-0.0221531
-0.022352
-0.0225465
-0.0227373
-0.022925
-0.0231103
-0.0232937
-0.0234757
-0.0236566
-0.0238366
-0.0240156
-0.0241932
-0.0243689
-0.024542
-0.0247112
-0.0248755
-0.0250335
-0.0251836
-0.0253246
-0.025455
-0.0255739
-0.0256804
-0.0257743
-0.0258557
-0.0259252
-0.0259842
-0.0260343
-0.0260778
-0.0261169
-0.0261544
-0.0261927
-0.026234
-0.0262801
-0.026332
-0.0263897
-0.0264525
-0.0265183
-0.0265842
-0.0266467
-0.0267012
-0.0267432
-0.0267683
-0.0267726
-0.0267532
-0.0267088
-0.02664
-0.0265493
-0.0264416
-0.0263242
-0.026206
-0.0260979
-0.0260114
-0.0259581
-0.0259491
-0.0259933
-0.0260969
-0.0262625
-0.0264878
-0.0267655
-0.0270831
-0.0274227
-0.0277618
-0.0280741
-0.028331
-0.0285033
-0.0285631
-0.028486
-0.0282529
-0.0278524
-0.0272819
-0.0265488
-0.025671
-0.0246764
-0.0236013
-0.022489
-0.0213864
-0.0203408
-0.0193959
-0.0185875
-0.0179402
-0.0174635
-0.0171497
-0.0169725
-0.0168873
-0.0168333
-0.0167372
-0.0165188
-0.0160985
-0.0154053
-0.0143862
-0.0130157
-0.0113035
-0.00930237
-0.00711159
-0.00487848
-0.00279514
-0.00109083
-1.96399e-005
0.000156421
-0.000811815
-0.00313706
-0.00697061
-0.012378
-0.0193171
-0.0276215
-0.0369904
-0.0469878
-0.0570524
-0.0665175
-0.0746436
-0.0806596
-0.083813
-0.0834248
-0.0789456
-0.0700095
-0.056479
-0.0384794
-0.0164158
0.0090283
0.036913
0.0660851
0.0952396
0.122996
0.147986
0.168941
0.18478
0.194682
0.198148
0.195028
0.18554
0.170243
0.150007
0.12594
0.0993196
0.0714995
0.0438265
0.0175558
-0.0062207
-0.0266302
-0.0430563
-0.0551561
-0.0628579
-0.0663412
-0.0660012
-0.0624033
-0.0562306
-0.0482286
-0.0391521
-0.0297171
-0.0205601
-0.0122082
-0.00505848
0.000630538
0.00473794
0.0072703
0.00834439
0.00816473
0.00699804
0.00514679
0.0029236
0.00062813
-0.00147217
-0.00315683
-0.00426204
-0.0046853
-0.00438518
-0.00337694
-0.00172461
0.000469516
0.00307694
0.0059558
0.00896339
0.0119677
0.0148575
0.0175498
0.0199953
0.0221811
0.0241304
0.0259004
0.0275775
0.0292702
0.0311017
0.0332005
0.035691
0.0386845
0.04227
0.0465068
0.0514186
0.0569887
0.0631586
0.0698273
0.0768545
0.0840647
0.091254
0.0981986
0.104664
0.110418
0.115236
0.118917
0.121293
0.122233
0.121653
0.119521
0.115855
0.110728
0.104261
0.0966168
0.0879966
0.0786281
0.0687565
0.0586336
0.0485078
0.0386133
0.0291623
0.0203368
0.0122837
0.00511078
-0.00111438
-0.00636398
-0.0106475
-0.0140077
-0.0165154
-0.0182629
-0.019358
-0.0199168
-0.0200574
-0.0198941
-0.0195327
-0.0190665
-0.0185734
-0.0181149
-0.0177352
-0.0174619
-0.0173078
-0.0172725
-0.0173454
-0.0175079
-0.0177369
-0.0180069
-0.0182927
-0.0185711
-0.0188225
-0.019032
-0.0191897
-0.0192911
-0.0193363
-0.0193299
-0.0192796
-0.0191959
-0.0190903
-0.0189749
-0.0188612
-0.0187597
-0.0186789
-0.0186252
-0.0186027
-0.0186132
-0.0186563
-0.0187301
-0.0188309
-0.0189543
-0.0190952
-0.0192487
-0.0194098
-0.0195746
-0.0197397
-0.0199029
-0.0200627
-0.020219
-0.0203722
-0.0205235
-0.0206745
-0.0208271
-0.0209832
-0.0211446
-0.0213126
-0.0214882
-0.0216719
-0.0218636
-0.0220627
-0.0222682
-0.0224786
-0.0226922
-0.0229072
-0.0231215
-0.0233333
-0.0235407
-0.023742
-0.0239358
-0.0241209
-0.0242965
-0.024462
-0.0246171
-0.0247618
-0.0248962
-0.0250207
-0.0251358
-0.025242
-0.02534
-0.0254305
-0.0255138
-0.0255907
-0.0256615
-0.0257267
-0.0257867
-0.025842
-0.025893
-0.0259405
-0.0259853
-0.0260281
-0.0260702
-0.0261128
-0.0261569
-0.0262039
-0.0262547
-0.0263103
-0.0263712
-0.0264372
-0.026508
-0.0265822
-0.0266582
-0.0267335
-0.0268049
-0.026869
-0.0269219
-0.0269598
-0.026979
-0.0269766
-0.0269503
-0.0268992
-0.0268238
-0.0267266
-0.0266117
-0.0264854
-0.0263556
-0.0262319
-0.026125
-0.026046
-0.0260058
-0.0260143
-0.0260792
-0.0262055
-0.0263939
-0.0266409
-0.0269375
-0.0272692
-0.0276164
-0.027954
-0.028253
-0.0284816
-0.0286068
-0.0285963
-0.0284209
-0.0280568
-0.0274878
-0.0267076
-0.0257208
-0.0245448
-0.0232092
-0.0217558
-0.020237
-0.018713
-0.0172488
-0.0159096
-0.0147568
-0.0138422
-0.013204
-0.0128618
-0.0128132
-0.0130323
-0.0134685
-0.0140487
-0.0146809
-0.0152601
-0.0156766
-0.0158261
-0.01562
-0.0149973
-0.013935
-0.0124575
-0.010643
-0.00862566
-0.00659441
-0.00478526
-0.00346891
-0.00293278
-0.00345857
-0.00529633
-0.00863681
-0.0135841
-0.0201311
-0.0281394
-0.0373277
-0.0472692
-0.0573995
-0.067038
-0.0754196
-0.0817386
-0.0852005
-0.0850797
-0.0807795
-0.0718883
-0.0582291
-0.0398959
-0.017274
0.00895956
0.037857
0.0682424
0.0987738
0.128021
0.154555
0.177041
0.194326
0.205519
0.210054
0.207726
0.198704
0.183524
0.16304
0.138371
0.110817
0.0817771
0.052654
0.0247697
-0.000711245
-0.0228419
-0.040935
-0.0545839
-0.0636636
-0.0683132
-0.0689018
-0.0659835
-0.0602442
-0.052445
-0.0433676
-0.0337631
-0.0243093
-0.0155773
-0.00800897
-0.00190556
0.00257329
0.00540116
0.00666878
0.00656241
0.00533872
0.00329829
0.000759642
-0.00196446
-0.00458729
-0.00686404
-0.00860289
-0.00967111
-0.00999653
-0.00956481
-0.00841333
-0.00662237
-0.0043047
-0.00159424
0.00136525
0.00443088
0.00747012
0.0103687
0.0130366
0.0154121
0.017464
0.019192
0.0206247
0.0218178
0.0228489
0.0238138
0.02482
0.0259811
0.0274107
0.0292162
0.0314933
0.0343201
0.0377525
0.0418206
0.0465251
0.0518357
0.0576904
0.0639958
0.0706292
0.0774418
0.0842634
0.0909077
0.0971795
0.102882
0.107823
0.111827
0.114738
0.116429
0.116807
0.115818
0.11345
0.109733
0.104741
0.0985836
0.0914081
0.0833894
0.0747242
0.065623
0.0563014
0.0469716
0.0378347
0.0290735
0.0208462
0.013282
0.00647803
0.000497996
-0.00462761
-0.00889976
-0.0123478
-0.0150254
-0.0170057
-0.0183756
-0.0192311
-0.0196712
-0.0197937
-0.0196904
-0.0194444
-0.0191269
-0.0187962
-0.0184968
-0.0182596
-0.0181025
-0.0180325
-0.0180469
-0.0181358
-0.0182841
-0.0184739
-0.0186861
-0.0189023
-0.019106
-0.019284
-0.0194263
-0.019527
-0.0195839
-0.0195983
-0.0195743
-0.0195184
-0.0194386
-0.0193436
-0.0192424
-0.0191432
-0.0190536
-0.0189797
-0.0189259
-0.0188951
-0.0188887
-0.0189065
-0.0189475
-0.0190093
-0.0190894
-0.0191847
-0.0192925
-0.0194102
-0.0195355
-0.019667
-0.0198036
-0.0199451
-0.0200916
-0.0202435
-0.0204016
-0.0205665
-0.0207389
-0.020919
-0.0211067
-0.0213017
-0.021503
-0.0217092
-0.0219188
-0.0221299
-0.0223406
-0.022549
-0.0227536
-0.0229531
-0.0231464
-0.023333
-0.0235129
-0.0236863
-0.023854
-0.0240168
-0.0241756
-0.0243316
-0.0244856
-0.0246382
-0.0247897
-0.0249403
-0.0250894
-0.0252364
-0.0253801
-0.0255194
-0.0256527
-0.0257786
-0.0258958
-0.0260031
-0.0260996
-0.026185
-0.026259
-0.0263222
-0.0263754
-0.0264197
-0.0264568
-0.0264886
-0.0265171
-0.0265444
-0.0265725
-0.0266033
-0.0266383
-0.0266786
-0.0267247
-0.0267766
-0.0268332
-0.0268932
-0.0269542
-0.0270133
-0.0270671
-0.0271119
-0.0271439
-0.0271596
-0.0271559
-0.0271308
-0.0270835
-0.0270147
-0.0269269
-0.0268247
-0.0267142
-0.0266038
-0.026503
-0.0264224
-0.0263728
-0.0263647
-0.0264072
-0.0265068
-0.026667
-0.0268869
-0.027161
-0.0274783
-0.0278225
-0.0281721
-0.0285012
-0.0287805
-0.0289791
-0.0290658
-0.0290119
-0.0287929
-0.0283909
-0.0277967
-0.0270114
-0.0260472
-0.0249278
-0.0236882
-0.0223728
-0.0210337
-0.0197267
-0.0185084
-0.0174313
-0.0165395
-0.0158643
-0.0154205
-0.0152034
-0.0151872
-0.015325
-0.0155508
-0.0157832
-0.015931
-0.0159014
-0.0156086
-0.014984
-0.0139863
-0.0126108
-0.0108977
-0.00893675
-0.00686939
-0.00488578
-0.00321733
-0.00212414
-0.0018775
-0.00273825
-0.00493206
-0.00862331
-0.0138895
-0.0206981
-0.0288894
-0.0381652
-0.0480883
-0.0580922
-0.0675018
-0.0755664
-0.0815026
-0.0845452
-0.0840041
-0.0793212
-0.0701255
-0.056279
-0.0379112
-0.0154362
0.0104489
0.0387874
0.0684067
0.0979812
0.126111
0.151407
0.172588
0.18856
0.198495
0.201892
0.198605
0.188858
0.173224
0.152586
0.128072
0.100976
0.0726725
0.0445265
0.0178098
-0.00637141
-0.027133
-0.0438507
-0.0561776
-0.0640412
-0.0676234
-0.0673247
-0.0637182
-0.0574959
-0.0494133
-0.0402357
-0.0306888
-0.0214187
-0.0129602
-0.00571685
4.79901e-005
0.00421041
0.00677566
0.00786073
0.0076717
0.00647794
0.00458531
0.00231025
-4.36079e-005
-0.00220505
-0.00395027
-0.00511278
-0.00558814
-0.00533386
-0.00436498
-0.00274604
-0.000580469
0.00200175
0.00485711
0.00784141
0.0108216
0.013686
0.016352
0.0187719
0.0209352
0.0228689
0.0246346
0.0263235
0.0280495
0.029941
0.0321309
0.0347467
0.0379011
0.0416825
0.046147
0.0513122
0.0571529
0.063599
0.070536
0.0778082
0.0852237
0.092562
0.0995839
0.106041
0.11169
0.116299
0.119666
0.121622
0.122044
0.120863
0.11806
0.113677
0.107809
0.100603
0.0922484
0.0829719
0.0730249
0.0626727
0.0521834
0.0418161
0.031811
0.02238
0.0136997
0.00590639
-0.000906782
-0.00669038
-0.0114369
-0.0151774
-0.0179761
-0.019924
-0.021132
-0.0217236
-0.0218273
-0.0215701
-0.0210718
-0.02044
-0.0197666
-0.0191257
-0.0185726
-0.0181437
-0.0178581
-0.0177196
-0.017719
-0.0178374
-0.0180493
-0.0183256
-0.0186363
-0.0189529
-0.0192505
-0.019509
-0.019714
-0.019857
-0.0199354
-0.0199518
-0.019913
-0.0198295
-0.0197139
-0.0195799
-0.0194411
-0.0193105
-0.0191993
-0.0191166
-0.0190692
-0.0190609
-0.0190935
-0.0191661
-0.0192763
-0.0194199
-0.0195919
-0.0197867
-0.0199985
-0.0202219
-0.0204521
-0.0206851
-0.0209178
-0.021148
-0.0213747
-0.0215974
-0.0218163
-0.0220321
-0.0222459
-0.0224586
-0.0226712
-0.0228842
-0.0230982
-0.0233128
-0.0235276
-0.0237417
-0.0239538
-0.0241623
-0.0243658
-0.0245624
-0.0247508
-0.0249295
-0.0250975
-0.0252543
-0.0253996
-0.0255335
-0.0256568
-0.0257704
-0.0258755
-0.0259736
-0.0260663
-0.0261552
-0.0262414
-0.0263263
-0.0264107
-0.0264948
-0.0265786
-0.0266616
-0.0267426
-0.0268202
-0.0268924
-0.026957
-0.0270119
-0.0270548
-0.0270835
-0.0270967
-0.0270932
-0.0270731
-0.0270372
-0.0269875
-0.0269271
-0.0268604
-0.0267927
-0.0267302
-0.0266794
-0.0266474
-0.0266403
-0.0266637
-0.0267215
-0.0268157
-0.0269458
-0.0271081
-0.0272961
-0.0275002
-0.0277079
-0.0279044
-0.0280734
-0.0281983
-0.0282629
-0.028253
-0.0281581
-0.0279716
-0.0276928
-0.0273266
-0.0268844
-0.0263828
-0.0258433
-0.0252903
-0.0247488
-0.0242421
-0.0237886
-0.0233993
-0.0230748
-0.0228039
-0.0225617
-0.0223101
-0.021999
-0.0215689
-0.0209554
-0.0200947
-0.0189304
-0.0174211
-0.0155479
-0.0133223
-0.0107918
-0.0080449
-0.00521269
-0.00246762
-1.84575e-005
0.0018987
0.00303344
0.00313777
0.00198586
-0.000604172
-0.00474789
-0.0104732
-0.0177017
-0.0262358
-0.0357512
-0.045799
-0.0558168
-0.0651505
-0.073085
-0.0788856
-0.0818444
-0.0813331
-0.0768543
-0.0680915
-0.05495
-0.0375863
-0.0164229
0.0078563
0.0343291
0.0618784
0.0892523
0.115138
0.138246
0.157394
0.171588
0.180091
0.182476
0.178656
0.168887
0.15375
0.134109
0.111047
0.0857894
0.059624
0.0338145
0.00952471
-0.0122475
-0.0307205
-0.0453601
-0.0558923
-0.0622971
-0.0647857
-0.0637647
-0.0597908
-0.0535193
-0.0456529
-0.0368911
-0.0278874
-0.0192125
-0.0113293
-0.00457677
0.000834975
0.00482066
0.00740753
0.00871694
0.00894194
0.00832276
0.00712245
0.00560431
0.00401264
0.00255775
0.00140595
0.000674599
0.000431957
0.000701366
0.00146878
0.00269271
0.00431537
0.00627396
0.00851105
0.0109831
0.0136665
0.0165605
0.0196876
0.0230899
0.0268237
0.0309516
0.0355332
0.0406148
0.0462206
0.0523435
0.058939
0.0659209
0.0731607
0.0804894
0.0877033
0.0945718
0.100849
0.106285
0.110642
0.113703
0.115292
0.115276
0.113582
0.110198
0.105176
0.0986312
0.090735
0.0817101
0.0718176
0.0613451
0.0505923
0.0398575
0.0294239
0.0195471
0.0104453
0.00229133
-0.00479223
-0.0107348
-0.0155171
-0.0191674
-0.021756
-0.0233872
-0.0241913
-0.0243152
-0.0239129
-0.0231374
-0.0221328
-0.0210282
-0.0199333
-0.018935
-0.0180965
-0.0174573
-0.0170351
-0.0168282
-0.016819
-0.0169781
-0.0172681
-0.0176478
-0.0180757
-0.0185131
-0.0189264
-0.0192887
-0.019581
-0.0197923
-0.0199195
-0.0199659
-0.019941
-0.0198584
-0.0197342
-0.0195862
-0.0194318
-0.0192872
-0.0191666
-0.0190811
-0.0190387
-0.0190443
-0.0190994
-0.0192029
-0.0193512
-0.0195389
-0.0197595
-0.0200059
-0.0202708
-0.0205473
-0.0208293
-0.0211114
-0.0213897
-0.0216611
-0.0219237
-0.0221765
-0.0224194
-0.0226527
-0.0228773
-0.0230941
-0.023304
-0.0235078
-0.0237062
-0.0238995
-0.0240877
-0.0242707
-0.0244481
-0.0246194
-0.0247842
-0.0249421
-0.025093
-0.0252367
-0.0253736
-0.0255042
-0.025629
-0.0257487
-0.025864
-0.0259754
-0.0260831
-0.0261868
-0.0262858
-0.0263788
-0.026464
-0.0265391
-0.0266016
-0.0266487
-0.0266783
-0.0266882
-0.0266774
-0.026646
-0.0265951
-0.0265277
-0.0264481
-0.0263619
-0.0262761
-0.0261983
-0.0261365
-0.0260983
-0.0260904
-0.0261176
-0.0261827
-0.0262855
-0.0264227
-0.0265876
-0.0267705
-0.0269589
-0.027138
-0.0272921
-0.0274056
-0.0274638
-0.0274549
-0.0273709
-0.0272084
-0.0269695
-0.0266624
-0.0263001
-0.0259007
-0.0254851
-0.0250753
-0.0246923
-0.0243525
-0.0240661
-0.0238335
-0.0236438
-0.0234734
-0.0232853
-0.0230309
-0.0226514
-0.0220826
-0.0212593
-0.0201226
-0.0186264
-0.0167456
-0.0144834
-0.0118778
-0.00900671
-0.00599032
-0.00299106
-0.000209594
0.00212285
0.00375617
0.00443675
0.00392619
0.00202219
-0.00141929
-0.00646243
-0.0130721
-0.0210985
-0.0302679
-0.0401809
-0.05032
-0.0600667
-0.068729
-0.0755776
-0.0798912
-0.0810052
-0.0783648
-0.0715746
-0.0604435
-0.0450197
-0.0256105
-0.00278704
0.0226314
0.049612
0.076961
0.103392
0.127607
0.148378
0.16463
0.175518
0.180484
0.179298
0.172069
0.159244
0.141568
0.120029
0.0957961
0.0701286
0.0443
0.0195148
-0.00316134
-0.0228585
-0.0389415
-0.0510303
-0.0590019
-0.0629737
-0.0632736
-0.0603982
-0.0549639
-0.0476552
-0.0391741
-0.0301935
-0.0213186
-0.0130562
-0.00579534
0.000202343
0.00480227
0.00798788
0.00984472
0.0105395
0.0102961
0.00937142
0.00803145
0.00653067
0.00509513
0.00391018
0.00311337
0.00279223
0.00298664
0.003695
0.00488329
0.00649586
0.00846689
0.0107314
0.0132348
0.0159404
0.018834
0.0219253
0.0252469
0.0288492
0.0327942
0.0371464
0.0419636
0.0472865
0.0531299
0.0594745
0.0662622
0.0733922
0.080722
0.0880706
0.0952248
0.101949
0.107995
0.113116
0.117082
0.119689
0.120774
0.120222
0.117979
0.11405
0.108506
0.101477
0.0931481
0.0837506
0.0735514
0.0628392
0.0519121
0.0410627
0.0305662
0.0206684
0.0115764
0.00345178
-0.00359362
-0.00949896
-0.014253
-0.0178901
-0.0204846
-0.0221428
-0.0229949
-0.023186
-0.0228669
-0.0221866
-0.0212844
-0.0202846
-0.0192921
-0.0183897
-0.0176369
-0.0170707
-0.0167068
-0.0165426
-0.0165605
-0.0167316
-0.01702
-0.017386
-0.0177901
-0.0181958
-0.0185718
-0.0188933
-0.0191436
-0.0193135
-0.0194016
-0.019413
-0.0193583
-0.019252
-0.0191112
-0.0189541
-0.0187983
-0.0186601
-0.018553
-0.0184877
-0.0184711
-0.0185069
-0.0185952
-0.0187331
-0.0189154
-0.0191349
-0.0193834
-0.0196523
-0.0199329
-0.0202175
-0.0204994
-0.0207732
-0.0210352
-0.0212834
-0.0215169
-0.0217365
-0.0219437
-0.022141
-0.0223309
-0.0225163
-0.0226998
-0.0228834
-0.0230687
-0.0232564
-0.0234465
-0.0236384
-0.0238307
-0.0240215
-0.0242089
-0.0243904
-0.024564
-0.0247275
-0.0248794
-0.0250187
-0.0251449
-0.0252581
-0.0253591
-0.0254495
-0.0255309
-0.0256056
-0.025676
-0.0257444
-0.0258128
-0.0258831
-0.0259562
-0.0260327
-0.026112
-0.0261929
-0.0262733
-0.0263503
-0.0264204
-0.0264799
-0.0265246
-0.0265511
-0.026556
-0.0265373
-0.0264942
-0.0264274
-0.0263396
-0.0262353
-0.0261209
-0.0260045
-0.0258958
-0.025805
-0.0257427
-0.0257188
-0.025742
-0.0258183
-0.0259509
-0.0261391
-0.0263777
-0.0266571
-0.026963
-0.0272771
-0.0275777
-0.0278406
-0.028041
-0.0281548
-0.0281606
-0.0280412
-0.0277856
-0.0273902
-0.0268597
-0.0262076
-0.0254556
-0.0246327
-0.0237732
-0.0229141
-0.0220923
-0.0213408
-0.0206854
-0.0201412
-0.0197097
-0.0193771
-0.0191135
-0.0188735
-0.0185987
-0.0182216
-0.0176711
-0.0168797
-0.0157915
-0.0143704
-0.0126088
-0.0105348
-0.00821769
-0.00577163
-0.00335508
-0.00116691
0.000561919
0.00158105
0.0016376
0.000496425
-0.00203707
-0.00609329
-0.0117155
-0.0188398
-0.0272801
-0.0367198
-0.0467127
-0.0566933
-0.0659987
-0.0739004
-0.0796457
-0.0825069
-0.0818346
-0.0771125
-0.0680083
-0.0544171
-0.0364922
-0.0146605
0.0103811
0.0376898
0.0661203
0.0943871
0.12114
0.145051
0.164899
0.179655
0.188552
0.191143
0.187325
0.177352
0.161812
0.141585
0.117781
0.0916576
0.064543
0.0377436
0.0124666
-0.0102487
-0.0295833
-0.0449727
-0.0561204
-0.0629934
-0.0657995
-0.064952
-0.0610228
-0.0546903
-0.0466858
-0.0377414
-0.0285443
-0.0196983
-0.0116959
-0.00490018
0.00046146
0.00429488
0.00662749
0.00759
0.0073934
0.00630339
0.00461418
0.0026237
0.000611662
-0.00117835
-0.00255191
-0.00337167
-0.00356002
-0.00309707
-0.00201445
-0.000385888
0.0016845
0.00407509
0.00665985
0.00932066
0.011958
0.0144993
0.016905
0.0191709
0.021328
0.0234397
0.0255952
0.0279027
0.030479
0.0334398
0.0368889
0.0409083
0.0455492
0.0508252
0.0567071
0.0631206
0.0699471
0.0770265
0.0841631
0.0911344
0.0977005
0.103616
0.108643
0.11256
0.11518
0.116352
0.115976
0.114007
0.110456
0.10539
0.0989324
0.0912538
0.0825657
0.0731101
0.0631481
0.0529485
0.0427754
0.0328778
0.023479
0.0147691
0.00689872
-2.45728e-005
-0.00593754
-0.0108203
-0.0146931
-0.0176116
-0.0196608
-0.0209475
-0.0215934
-0.0217271
-0.0214775
-0.0209672
-0.0203075
-0.0195948
-0.0189073
-0.0183044
-0.0178263
-0.0174953
-0.0173172
-0.0172846
-0.0173794
-0.0175763
-0.0178456
-0.0181563
-0.0184788
-0.0187865
-0.0190578
-0.0192766
-0.0194331
-0.0195233
-0.0195489
-0.019516
-0.0194348
-0.0193176
-0.0191784
-0.0190311
-0.0188892
-0.0187645
-0.018667
-0.018604
-0.0185803
-0.0185981
-0.0186575
-0.0187561
-0.0188904
-0.0190554
-0.0192455
-0.019455
-0.0196781
-0.0199095
-0.0201448
-0.0203803
-0.0206132
-0.0208416
-0.0210645
-0.0212818
-0.0214937
-0.0217011
-0.0219051
-0.0221067
-0.0223073
-0.0225079
-0.0227092
-0.0229118
-0.0231158
-0.0233212
-0.0235274
-0.0237338
-0.0239392
-0.0241425
-0.0243422
-0.024537
-0.0247253
-0.0249055
-0.0250763
-0.0252364
-0.0253847
-0.0255203
-0.0256427
-0.0257517
-0.0258475
-0.0259308
-0.0260026
-0.0260643
-0.0261178
-0.026165
-0.0262083
-0.02625
-0.0262922
-0.0263368
-0.0263852
-0.0264382
-0.0264959
-0.0265575
-0.0266214
-0.026685
-0.0267452
-0.0267983
-0.0268401
-0.0268669
-0.0268752
-0.0268622
-0.0268266
-0.0267686
-0.02669
-0.026595
-0.0264893
-0.0263807
-0.0262786
-0.0261931
-0.0261347
-0.0261135
-0.0261382
-0.0262151
-0.0263473
-0.0265343
-0.0267709
-0.0270472
-0.0273485
-0.027656
-0.0279473
-0.0281976
-0.0283812
-0.0284732
-0.0284517
-0.0282989
-0.0280037
-0.0275626
-0.0269806
-0.0262719
-0.0254593
-0.024573
-0.0236489
-0.0227259
-0.0218426
-0.021034
-0.0203276
-0.0197401
-0.0192747
-0.0189186
-0.0186427
-0.0184023
-0.0181388
-0.0177846
-0.017268
-0.0165208
-0.0154859
-0.0141265
-0.0124339
-0.0104352
-0.0081996
-0.00584067
-0.00351685
-0.00142708
0.000197689
0.00110736
0.00104986
-0.000208325
-0.00285912
-0.00702897
-0.0127559
-0.0199694
-0.0284759
-0.0379504
-0.0479384
-0.0578668
-0.0670665
-0.074805
-0.0803285
-0.0829122
-0.0819136
-0.0768272
-0.0673358
-0.0533528
-0.0350521
-0.0128826
0.0124378
0.0399468
0.0684837
0.0967526
0.123399
0.147098
0.166638
0.181005
0.189457
0.191568
0.187266
0.176832
0.160878
0.140308
0.116246
0.0899628
0.0627887
0.0360273
0.010877
-0.0116369
-0.0307129
-0.0458058
-0.0566394
-0.0631996
-0.0657115
-0.064602
-0.0604526
-0.0539475
-0.0458194
-0.0367979
-0.0275641
-0.0187133
-0.0107278
-0.00395968
0.00137468
0.00519107
0.00752519
0.0085138
0.0083714
0.00736443
0.00578526
0.00392757
0.00206489
0.000433214
-0.000781306
-0.00144956
-0.00150145
-0.000923102
0.000249917
0.00194256
0.00405236
0.00646248
0.00905481
0.011722
0.0143775
0.0169639
0.0194569
0.0218677
0.0242414
0.0266524
0.0291978
0.0319881
0.0351374
0.0387519
0.0429195
0.0476998
0.0531158
0.0591476
0.0657291
0.0727474
0.0800448
0.0874248
0.0946598
0.101501
0.107693
0.112981
0.117131
0.119938
0.121238
0.120918
0.118923
0.115257
0.109988
0.103241
0.095194
0.0860699
0.0761252
0.0656383
0.0548963
0.0441823
0.0337634
0.0238795
0.0147348
0.00649078
-0.00073745
-0.00688291
-0.0119255
-0.0158888
-0.0188343
-0.0208554
-0.0220689
-0.0226072
-0.0226099
-0.0222164
-0.021559
-0.0207576
-0.0199149
-0.0191144
-0.0184186
-0.0178695
-0.0174894
-0.0172834
-0.0172421
-0.0173449
-0.0175636
-0.0178655
-0.0182169
-0.0185853
-0.0189417
-0.0192624
-0.0195297
-0.0197321
-0.0198646
-0.0199281
-0.0199281
-0.0198742
-0.0197787
-0.0196554
-0.0195186
-0.019382
-0.0192583
-0.0191581
-0.0190897
-0.0190592
-0.0190699
-0.0191232
-0.0192182
-0.0193523
-0.0195216
-0.0197212
-0.0199457
-0.0201894
-0.0204469
-0.0207128
-0.0209825
-0.021252
-0.0215179
-0.0217777
-0.0220297
-0.0222727
-0.0225061
-0.0227299
-0.0229444
-0.0231502
-0.023348
-0.0235387
-0.0237231
-0.0239018
-0.0240757
-0.024245
-0.0244102
-0.0245715
-0.024729
-0.0248827
-0.0250326
-0.0251786
-0.0253206
-0.0254584
-0.0255919
-0.025721
-0.0258455
-0.0259651
-0.0260795
-0.0261885
-0.0262915
-0.0263879
-0.0264771
-0.0265583
-0.0266304
-0.0266926
-0.0267436
-0.0267825
-0.0268084
-0.0268206
-0.0268186
-0.0268027
-0.0267737
-0.0267329
-0.0266829
-0.0266267
-0.0265685
-0.0265132
-0.0264662
-0.0264333
-0.0264202
-0.0264323
-0.0264737
-0.0265474
-0.0266542
-0.0267927
-0.0269586
-0.0271452
-0.0273425
-0.0275385
-0.0277191
-0.027869
-0.0279728
-0.028016
-0.0279863
-0.0278747
-0.0276764
-0.0273922
-0.0270281
-0.0265962
-0.0261133
-0.0256004
-0.025081
-0.0245784
-0.0241138
-0.023703
-0.0233543
-0.0230654
-0.0228219
-0.0225965
-0.0223489
-0.0220273
-0.0215717
-0.0209179
-0.0200034
-0.0187746
-0.0171935
-0.0152461
-0.0129495
-0.0103574
-0.0075647
-0.00470868
-0.00196729
0.000446415
0.0022938
0.00332412
0.00329159
0.00197544
-0.00079835
-0.00513473
-0.0110487
-0.0184473
-0.0271174
-0.0367195
-0.0467906
-0.0567571
-0.0659568
-0.0736721
-0.0791705
-0.0817531
-0.0808063
-0.0758536
-0.0666037
-0.0529911
-0.0352032
-0.013693
0.0108277
0.0374137
0.0649315
0.0921217
0.117674
0.140309
0.158868
0.172385
0.18016
0.181805
0.177274
0.166862
0.151184
0.13113
0.107801
0.0824321
0.0563075
0.0306803
0.00669546
-0.0146748
-0.0326781
-0.0468116
-0.0568322
-0.062748
-0.0647948
-0.0633983
-0.0591283
-0.0526475
-0.0446595
-0.0358597
-0.0268928
-0.0183178
-0.010583
-0.00401201
0.00120046
0.00498378
0.00737816
0.00851585
0.00859828
0.00787148
0.00660174
0.00505317
0.00346872
0.00205551
0.000975137
0.000339038
0.000208714
0.000600157
0.00149167
0.00283402
0.00456185
0.00660517
0.00889996
0.0113969
0.0140677
0.0169084
0.0199396
0.0232036
0.0267588
0.0306723
0.0350102
0.0398276
0.0451596
0.0510116
0.0573529
0.064112
0.0711747
0.078386
0.0855543
0.0924588
0.0988603
0.104512
0.109175
0.112627
0.11468
0.11519
0.114066
0.111274
0.106846
0.100872
0.0935041
0.0849432
0.0754331
0.0652471
0.0546758
0.0440129
0.0335419
0.0235239
0.014187
0.00571773
-0.00174441
-0.00811014
-0.0133405
-0.0174441
-0.020473
-0.0225154
-0.0236881
-0.0241276
-0.0239815
-0.0233997
-0.0225269
-0.0214958
-0.0204221
-0.0194009
-0.0185048
-0.0177833
-0.017264
-0.0169543
-0.0168448
-0.0169127
-0.0171256
-0.0174456
-0.0178324
-0.0182473
-0.0186552
-0.0190269
-0.0193403
-0.0195809
-0.0197419
-0.0198238
-0.019833
-0.0197808
-0.019682
-0.0195535
-0.0194123
-0.0192752
-0.0191569
-0.0190696
-0.0190226
-0.0190217
-0.0190697
-0.0191662
-0.0193081
-0.0194906
-0.0197069
-0.0199499
-0.0202118
-0.0204853
-0.0207635
-0.0210408
-0.0213126
-0.0215757
-0.0218279
-0.0220685
-0.0222974
-0.0225156
-0.0227243
-0.0229252
-0.0231198
-0.0233097
-0.023496
-0.0236796
-0.0238608
-0.0240394
-0.024215
-0.0243867
-0.0245537
-0.0247148
-0.024869
-0.0250156
-0.025154
-0.0252841
-0.0254062
-0.0255208
-0.025629
-0.0257322
-0.0258317
-0.025929
-0.0260256
-0.0261225
-0.0262203
-0.026319
-0.0264181
-0.0265162
-0.0266112
-0.0267003
-0.0267804
-0.0268477
-0.0268986
-0.0269297
-0.0269381
-0.0269219
-0.0268804
-0.0268146
-0.0267272
-0.0266226
-0.0265072
-0.0263891
-0.0262776
-0.0261828
-0.0261149
-0.0260837
-0.0260976
-0.0261625
-0.0262816
-0.0264543
-0.0266758
-0.0269368
-0.0272239
-0.0275194
-0.0278028
-0.0280509
-0.0282402
-0.0283477
-0.028353
-0.0282399
-0.027998
-0.0276241
-0.0271228
-0.0265073
-0.0257982
-0.0250234
-0.0242153
-0.0234092
-0.0226394
-0.0219367
-0.0213242
-0.0208146
-0.0204071
-0.020086
-0.0198199
-0.0195623
-0.0192544
-0.018829
-0.0182161
-0.0173499
-0.0161766
-0.0146629
-0.0128043
-0.010632
-0.00821837
-0.00568031
-0.00317853
-0.000913543
0.000882695
0.00195949
0.00206412
0.000961979
-0.00154092
-0.00557451
-0.011182
-0.0183002
-0.0267443
-0.0361998
-0.0462235
-0.0562533
-0.0656297
-0.0736273
-0.0794958
-0.0825084
-0.0820149
-0.077496
-0.068614
-0.0552564
-0.0375669
-0.0159613
0.00887553
0.0360126
0.0643156
0.0925081
0.119247
0.143205
0.163163
0.178086
0.1872
0.190047
0.186511
0.176832
0.161584
0.141633
0.118077
0.0921662
0.0652212
0.0385452
0.0133455
-0.00933592
-0.0286748
-0.0440995
-0.0553052
-0.0622499
-0.0651327
-0.0643586
-0.0604923
-0.0542067
-0.046229
-0.0372891
-0.0280736
-0.0191871
-0.0111243
-0.00425166
0.00119978
0.00513169
0.00756732
0.00863352
0.00853794
0.00754364
0.00594303
0.00403313
0.00209363
0.000368936
-0.000944979
-0.00170862
-0.00184187
-0.00132212
-0.000178347
0.00151811
0.00366505
0.00614209
0.00882364
0.0115911
0.0143436
0.0170063
0.0195365
0.0219263
0.024203
0.0264255
0.0286797
0.0310702
0.0337118
0.0367191
0.0401962
0.0442271
0.0488667
0.0541335
0.0600048
0.0664137
0.0732494
0.08036
0.0875576
0.0946259
0.10133
0.107428
0.112682
0.116868
0.119794
0.121302
0.121281
0.119672
0.116472
0.111735
0.105566
0.0981223
0.089602
0.0802358
0.0702767
0.0599887
0.049635
0.0394671
0.029715
0.0205785
0.012221
0.00476505
-0.00170987
-0.00716685
-0.0116095
-0.0150777
-0.0176426
-0.0193993
-0.0204605
-0.020949
-0.0209906
-0.020708
-0.0202151
-0.0196131
-0.0189871
-0.0184043
-0.0179135
-0.0175459
-0.0173159
-0.0172236
-0.017258
-0.0173988
-0.0176208
-0.0178956
-0.018195
-0.0184929
-0.0187668
-0.0189994
-0.0191789
-0.0192991
-0.0193594
-0.0193637
-0.01932
-0.0192388
-0.0191323
-0.0190135
-0.0188947
-0.0187871
-0.0187001
-0.0186408
-0.018614
-0.018622
-0.018665
-0.0187409
-0.0188465
-0.0189775
-0.0191286
-0.0192948
-0.019471
-0.0196528
-0.0198365
-0.0200194
-0.0201994
-0.0203759
-0.0205486
-0.0207183
-0.0208861
-0.0210535
-0.0212221
-0.0213935
-0.0215692
-0.0217502
-0.0219371
-0.0221302
-0.0223291
-0.0225331
-0.0227412
-0.0229518
-0.0231632
-0.0233736
-0.0235812
-0.0237841
-0.0239809
-0.02417
-0.0243504
-0.0245214
-0.0246824
-0.0248333
-0.0249743
-0.0251058
-0.0252281
-0.025342
-0.025448
-0.0255467
-0.0256387
-0.0257241
-0.0258034
-0.0258767
-0.0259438
-0.0260048
-0.0260598
-0.0261086
-0.0261515
-0.026189
-0.0262216
-0.0262504
-0.0262765
-0.0263014
-0.0263267
-0.026354
-0.0263847
-0.0264202
-0.0264611
-0.0265075
-0.0265589
-0.0266137
-0.0266696
-0.0267236
-0.0267718
-0.0268101
-0.0268341
-0.0268399
-0.0268241
-0.0267845
-0.0267204
-0.0266329
-0.0265254
-0.0264034
-0.0262747
-0.0261489
-0.0260373
-0.0259518
-0.0259044
-0.0259062
-0.0259662
-0.0260901
-0.0262799
-0.0265321
-0.0268378
-0.0271821
-0.027544
-0.0278972
-0.0282108
-0.028451
-0.0285825
-0.0285711
-0.0283859
-0.0280018
-0.0274018
-0.0265795
-0.0255402
-0.0243027
-0.0228989
-0.0213733
-0.0197818
-0.0181885
-0.0166622
-0.0152724
-0.0140842
-0.0131528
-0.012519
-0.0122038
-0.0122058
-0.0124978
-0.0130275
-0.0137183
-0.0144736
-0.0151833
-0.0157316
-0.0160082
-0.0159187
-0.0153971
-0.0144166
-0.012999
-0.0112217
-0.00921994
-0.00718501
-0.00535691
-0.00401125
-0.00344088
-0.0039329
-0.00574211
-0.0090629
-0.0140014
-0.0205504
-0.0285697
-0.0377741
-0.0477308
-0.0578687
-0.0674992
-0.0758496
-0.0821073
-0.0854723
-0.0852159
-0.0807406
-0.0716375
-0.0577347
-0.0391345
-0.0162327
0.0102817
0.0394481
0.0700778
0.100817
0.130226
0.156869
0.179405
0.196681
0.207808
0.212223
0.20973
0.200507
0.185097
0.164368
0.139447
0.111646
0.0823717
0.0530342
0.0249614
-0.000678087
-0.0229351
-0.0411217
-0.0548321
-0.0639437
-0.0685986
-0.0691697
-0.0662155
-0.0604264
-0.0525681
-0.0434264
-0.0337566
-0.02424
-0.0154511
-0.00783454
-0.00169412
0.00280834
0.00564455
0.00690362
0.00677048
0.00550079
0.00339448
0.000769902
-0.00205977
-0.00480671
-0.00722417
-0.00911751
-0.0103502
-0.0108453
-0.010583
-0.00959441
-0.00795309
-0.00576517
-0.00315829
-0.000270847
0.00275821
0.00579831
0.00873466
0.0114739
0.0139479
0.0161157
0.0179641
0.0195064
0.0207803
0.0218444
0.0227749
0.0236609
0.0245995
0.0256918
0.0270374
0.0287304
0.0308547
0.0334799
0.0366578
0.0404192
0.044771
0.0496945
0.0551446
0.0610488
0.0673088
0.0738022
0.0803853
0.0868974
0.0931656
0.099011
0.104255
0.108726
0.112267
0.114741
0.116039
0.116082
0.114829
0.112276
0.108458
0.103447
0.0973528
0.0903147
0.0824982
0.074088
0.0652806
0.0562767
0.0472732
0.0384567
0.0299961
0.0220378
0.0147014
0.00807701
0.00222385
-0.00282921
-0.0070822
-0.0105612
-0.0133146
-0.0154086
-0.0169224
-0.0179434
-0.018562
-0.0188677
-0.0189449
-0.0188697
-0.0187082
-0.0185145
-0.0183301
-0.0181846
-0.0180956
-0.0180709
-0.0181097
-0.0182044
-0.018343
-0.0185107
-0.018692
-0.0188719
-0.019037
-0.0191769
-0.0192843
-0.0193551
-0.0193885
-0.0193868
-0.0193545
-0.0192978
-0.0192241
-0.0191412
-0.0190566
-0.0189771
-0.0189086
-0.0188554
-0.0188203
-0.0188049
-0.0188092
-0.0188322
-0.018872
-0.0189261
-0.0189918
-0.0190663
-0.0191472
-0.0192327
-0.0193214
-0.0194126
-0.0195065
-0.0196036
-0.0197054
-0.0198131
-0.0199285
-0.0200534
-0.020189
-0.0203366
-0.0204967
-0.0206694
-0.0208542
-0.0210499
-0.0212549
-0.0214672
-0.0216844
-0.0219041
-0.0221237
-0.0223408
-0.0225532
-0.0227594
-0.0229577
-0.0231475
-0.0233284
-0.0235004
-0.023664
-0.0238201
-0.0239696
-0.0241139
-0.0242539
-0.0243908
-0.0245254
-0.0246584
-0.0247902
-0.0249208
-0.02505
-0.0251772
-0.0253017
-0.0254226
-0.025539
-0.0256497
-0.0257539
-0.0258507
-0.0259395
-0.0260198
-0.0260914
-0.0261544
-0.0262091
-0.0262561
-0.0262962
-0.0263303
-0.0263595
-0.0263851
-0.0264084
-0.0264308
-0.0264537
-0.0264782
-0.0265057
-0.0265371
-0.0265733
-0.0266146
-0.0266613
-0.0267128
-0.0267682
-0.0268259
-0.0268839
-0.0269392
-0.0269888
-0.027029
-0.027056
-0.0270663
-0.0270566
-0.0270247
-0.0269691
-0.0268903
-0.0267902
-0.0266729
-0.0265442
-0.0264123
-0.0262868
-0.0261784
-0.0260986
-0.0260586
-0.0260685
-0.026136
-0.0262659
-0.0264585
-0.0267092
-0.0270079
-0.0273387
-0.0276797
-0.0280041
-0.028281
-0.0284766
-0.0285565
-0.0284875
-0.0282403
-0.0277918
-0.0271272
-0.0262426
-0.0251461
-0.0238589
-0.0224153
-0.0208621
-0.0192566
-0.017664
-0.0161536
-0.0147944
-0.0136504
-0.012775
-0.0122062
-0.0119622
-0.0120377
-0.0124022
-0.0129995
-0.0137496
-0.0145532
-0.0152978
-0.0158669
-0.0161499
-0.0160539
-0.0155152
-0.0145107
-0.0130666
-0.0112652
-0.00924716
-0.00720865
-0.00539381
-0.00408112
-0.00356459
-0.00413039
-0.00603013
-0.00945268
-0.0144965
-0.021145
-0.0292474
-0.0385073
-0.0484814
-0.0585892
-0.0681354
-0.0763437
-0.0824018
-0.0855145
-0.0849627
-0.080163
-0.0707241
-0.0564952
-0.0376012
-0.0144607
0.0122158
0.0414497
0.0720389
0.102623
0.131761
0.158026
0.180092
0.196828
0.207372
0.211194
0.208127
0.198385
0.182538
0.161477
0.136348
0.108471
0.079254
0.0501006
0.022324
-0.00292695
-0.0247277
-0.0424171
-0.0556165
-0.0642293
-0.0684204
-0.0685819
-0.065286
-0.0592316
-0.0511874
-0.0419373
-0.0322297
-0.0227357
-0.0140167
-0.00650257
-0.000481424
0.00390028
0.00662863
0.0078055
0.00762644
0.0063552
0.00429713
0.00177328
-0.000903282
-0.00344738
-0.0056174
-0.00722599
-0.00814582
-0.00831078
-0.00771285
-0.00639572
-0.00444572
-0.00198111
0.00085954
0.00392892
0.00708193
0.0101854
0.0131263
0.0158177
0.0182032
0.020259
0.0219937
0.0234471
0.024687
0.0258041
0.0269066
0.0281143
0.0295508
0.0313371
0.0335843
0.0363871
0.0398172
0.0439191
0.0487049
0.0541521
0.0602021
0.0667604
0.0736983
0.0808566
0.0880506
0.0950766
0.10172
0.107762
0.112991
0.117213
0.120254
0.121975
0.122274
0.121095
0.118427
0.114308
0.108822
0.102096
0.0942966
0.0856206
0.0762876
0.066531
0.0565882
0.046691
0.0370568
0.0278808
0.0193295
0.0115358
0.00459647
-0.00142961
-0.00652012
-0.0106871
-0.0139732
-0.0164465
-0.0181948
-0.0193199
-0.0199308
-0.0201383
-0.0200497
-0.019764
-0.0193687
-0.0189374
-0.018528
-0.0181829
-0.0179292
-0.01778
-0.0177365
-0.0177903
-0.0179258
-0.0181227
-0.0183585
-0.0186108
-0.0188586
-0.0190842
-0.0192739
-0.0194183
-0.0195127
-0.0195567
-0.0195538
-0.0195102
-0.0194348
-0.0193374
-0.0192288
-0.0191191
-0.0190178
-0.0189329
-0.0188707
-0.0188358
-0.0188306
-0.0188562
-0.0189117
-0.0189953
-0.0191039
-0.019234
-0.0193818
-0.0195435
-0.0197155
-0.0198947
-0.0200783
-0.0202645
-0.0204518
-0.0206396
-0.0208275
-0.0210158
-0.0212049
-0.0213956
-0.0215885
-0.0217842
-0.0219834
-0.0221862
-0.0223926
-0.0226024
-0.0228149
-0.0230294
-0.0232447
-0.0234598
-0.0236733
-0.0238839
-0.0240904
-0.0242915
-0.0244859
-0.0246726
-0.0248505
-0.0250188
-0.0251765
-0.0253229
-0.0254575
-0.0255798
-0.0256894
-0.0257865
-0.0258713
-0.0259445
-0.0260071
-0.0260606
-0.0261068
-0.0261478
-0.0261862
-0.0262243
-0.0262645
-0.0263092
-0.0263599
-0.0264177
-0.026483
-0.026555
-0.0266321
-0.0267117
-0.0267901
-0.0268634
-0.0269268
-0.0269758
-0.0270061
-0.0270142
-0.0269977
-0.0269558
-0.0268897
-0.0268025
-0.0266994
-0.0265877
-0.0264761
-0.026375
-0.026295
-0.0262468
-0.0262401
-0.0262826
-0.0263794
-0.0265319
-0.0267375
-0.0269889
-0.0272742
-0.0275768
-0.0278765
-0.0281499
-0.0283722
-0.0285183
-0.0285648
-0.0284918
-0.0282846
-0.0279355
-0.0274447
-0.0268211
-0.0260823
-0.0252542
-0.0243691
-0.023464
-0.0225776
-0.0217468
-0.0210038
-0.0203717
-0.019862
-0.0194718
-0.0191822
-0.018958
-0.0187489
-0.0184924
-0.0181183
-0.0175546
-0.0167346
-0.0156057
-0.0141371
-0.0123288
-0.0102178
-0.00788377
-0.00545129
-0.00308881
-0.00100367
0.000567249
0.00137125
0.00115747
-0.000302162
-0.00318981
-0.00761811
-0.0136078
-0.0210685
-0.0297851
-0.0394117
-0.0494741
-0.059383
-0.0684578
-0.0759609
-0.0811408
-0.0832829
-0.0817629
-0.0761011
-0.0660125
-0.051447
-0.0326177
-0.0100123
0.0156157
0.0432743
0.0717818
0.0998317
0.126071
0.149189
0.167999
0.181525
0.189068
0.190254
0.18506
0.173816
0.157179
0.136086
0.111687
0.0852611
0.0581385
0.0316089
0.00684652
-0.0151558
-0.0336348
-0.048086
-0.0582733
-0.0642202
-0.0661836
-0.0646151
-0.0601132
-0.0533703
-0.0451188
-0.0360808
-0.0269236
-0.018224
-0.0104428
-0.00390963
0.0011808
0.00476389
0.00689142
0.0077119
0.00744675
0.00636438
0.00475447
0.00290395
0.00107643
-0.000504108
-0.00166447
-0.00228816
-0.00231625
-0.00174352
-0.000610864
0.00100527
0.00300517
0.00527894
0.00771916
0.0102323
0.0127478
0.0152251
0.0176568
0.0200688
0.022518
0.0250864
0.0278729
0.0309839
0.0345225
0.0385775
0.0432132
0.0484603
0.054309
0.0607046
0.0675457
0.0746863
0.0819398
0.0890868
0.0958849
0.102081
0.107423
0.111674
0.114625
0.116109
0.116005
0.11425
0.110842
0.10584
0.0993632
0.091584
0.0827205
0.0730258
0.0627762
0.0522579
0.041754
0.0315326
0.021835
0.0128671
0.00479236
-0.0022726
-0.00825938
-0.013147
-0.0169586
-0.0197559
-0.021633
-0.0227077
-0.0231139
-0.022993
-0.0224861
-0.0217273
-0.0208378
-0.0199216
-0.0190628
-0.0183243
-0.0177474
-0.0173536
-0.0171463
-0.0171141
-0.0172341
-0.0174753
-0.0178022
-0.0181784
-0.018569
-0.0189429
-0.0192748
-0.0195462
-0.0197454
-0.0198678
-0.0199152
-0.0198949
-0.0198184
-0.0196999
-0.0195556
-0.0194016
-0.0192534
-0.0191246
-0.0190267
-0.0189679
-0.0189538
-0.0189867
-0.0190663
-0.01919
-0.0193532
-0.0195503
-0.0197745
-0.0200191
-0.0202773
-0.0205432
-0.0208115
-0.021078
-0.0213396
-0.0215941
-0.0218404
-0.0220783
-0.0223079
-0.0225301
-0.0227457
-0.0229559
-0.0231614
-0.023363
-0.0235609
-0.0237554
-0.0239461
-0.0241324
-0.0243135
-0.0244885
-0.0246564
-0.0248163
-0.0249672
-0.0251086
-0.0252402
-0.025362
-0.0254743
-0.0255779
-0.0256737
-0.025763
-0.0258473
-0.025928
-0.0260066
-0.0260845
-0.0261627
-0.0262419
-0.026322
-0.0264026
-0.0264827
-0.0265604
-0.0266333
-0.0266988
-0.0267536
-0.0267945
-0.0268187
-0.0268237
-0.0268078
-0.0267707
-0.0267131
-0.0266376
-0.0265484
-0.0264513
-0.0263537
-0.0262641
-0.0261917
-0.0261457
-0.0261349
-0.0261663
-0.0262451
-0.0263732
-0.0265492
-0.0267676
-0.0270186
-0.0272885
-0.0275598
-0.0278126
-0.0280249
-0.0281747
-0.0282414
-0.0282071
-0.028059
-0.02779
-0.0274002
-0.0268976
-0.0262976
-0.0256226
-0.0249008
-0.0241634
-0.0234426
-0.0227681
-0.0221638
-0.0216448
-0.0212143
-0.0208617
-0.0205617
-0.0202741
-0.019946
-0.0195148
-0.0189137
-0.0180771
-0.0169491
-0.0154906
-0.0136882
-0.0115611
-0.00916753
-0.00660827
-0.00402795
-0.00161218
0.000419029
0.00182215
0.0023452
0.00174635
-0.000184632
-0.00360343
-0.0085883
-0.0151192
-0.0230607
-0.0321515
-0.0420007
-0.0520947
-0.0618137
-0.0704584
-0.0772878
-0.0815637
-0.0826026
-0.0798291
-0.0728283
-0.0613924
-0.0455575
-0.0256256
-0.00216972
0.0239808
0.0517745
0.0799919
0.107315
0.132407
0.154001
0.170984
0.182473
0.187879
0.186946
0.17977
0.166791
0.148757
0.126678
0.101743
0.0752493
0.0485084
0.0227684
-0.000861657
-0.0214707
-0.0383872
-0.051202
-0.0597708
-0.0642
-0.0648157
-0.0621217
-0.0567501
-0.0494076
-0.0408231
-0.0316991
-0.0226704
-0.014272
-0.00691699
-0.000885772
0.00367508
0.00674443
0.00841091
0.00885161
0.00830743
0.00705712
0.00539203
0.0035932
0.00191213
0.000556234
-0.000320616
-0.000622302
-0.000309731
0.000604271
0.00206358
0.00397995
0.00624563
0.00874639
0.0113739
0.0140366
0.0166682
0.0192337
0.0217322
0.0241959
0.0266878
0.0292943
0.0321182
0.0352679
0.0388473
0.0429449
0.047624
0.0529137
0.0588027
0.0652352
0.0721092
0.0792791
0.0865594
0.0937329
0.10056
0.106791
0.112177
0.116483
0.119504
0.121072
0.121065
0.119418
0.116126
0.111241
0.104874
0.0971904
0.0883989
0.0787439
0.0684935
0.0579269
0.0473222
0.0369441
0.0270336
0.0177982
0.00940594
0.00198006
-0.00440241
-0.00971037
-0.0139559
-0.0171893
-0.0194934
-0.0209757
-0.0217609
-0.0219827
-0.0217768
-0.0212734
-0.0205921
-0.0198374
-0.0190955
-0.0184328
-0.0178954
-0.0175103
-0.0172871
-0.0172206
-0.0172938
-0.0174814
-0.0177528
-0.0180757
-0.0184185
-0.0187524
-0.0190536
-0.019304
-0.0194917
-0.0196113
-0.019663
-0.0196523
-0.0195886
-0.0194842
-0.0193531
-0.0192097
-0.0190677
-0.0189399
-0.0188365
-0.0187658
-0.0187331
-0.0187413
-0.0187908
-0.01888
-0.0190053
-0.0191623
-0.0193453
-0.0195487
-0.0197666
-0.0199938
-0.0202255
-0.0204577
-0.0206873
-0.0209123
-0.0211311
-0.0213434
-0.021549
-0.0217487
-0.0219432
-0.0221338
-0.0223218
-0.0225083
-0.0226945
-0.0228816
-0.0230701
-0.0232607
-0.0234536
-0.0236484
-0.0238448
-0.0240419
-0.0242385
-0.024433
-0.0246238
-0.0248089
-0.0249863
-0.0251541
-0.0253104
-0.0254537
-0.0255827
-0.0256966
-0.0257952
-0.0258788
-0.0259483
-0.0260053
-0.0260517
-0.02609
-0.0261231
-0.0261539
-0.0261854
-0.0262202
-0.0262606
-0.0263085
-0.0263645
-0.0264286
-0.0264999
-0.0265761
-0.0266543
-0.0267306
-0.0268005
-0.0268591
-0.0269017
-0.026924
-0.0269222
-0.0268941
-0.0268391
-0.0267582
-0.0266548
-0.0265345
-0.0264049
-0.0262755
-0.0261571
-0.0260616
-0.0260008
-0.0259856
-0.0260253
-0.0261261
-0.0262909
-0.0265177
-0.0267996
-0.0271244
-0.0274744
-0.0278271
-0.0281562
-0.0284325
-0.0286258
-0.0287069
-0.0286497
-0.0284329
-0.0280429
-0.0274746
-0.0267333
-0.0258348
-0.0248057
-0.0236821
-0.0225077
-0.0213312
-0.0202032
-0.0191715
-0.0182777
-0.0175528
-0.0170133
-0.0166587
-0.0164691
-0.0164057
-0.0164116
-0.0164149
-0.0163346
-0.0160866
-0.0155924
-0.0147882
-0.0136347
-0.0121257
-0.0102961
-0.00822744
-0.00605004
-0.00394146
-0.00212035
-0.000835526
-0.000350296
-0.000922627
-0.00278201
-0.00610446
-0.0109874
-0.0174268
-0.0252977
-0.0343429
-0.0441678
-0.0542477
-0.0639444
-0.0725353
-0.0792519
-0.0833284
-0.0840551
-0.0808356
-0.0732413
-0.0610605
-0.0443358
-0.0233872
0.00118339
0.0285083
0.0574907
0.0868613
0.115251
0.141274
0.16362
0.18114
0.192926
0.198373
0.197224
0.189584
0.175915
0.156996
0.133875
0.107787
0.0800758
0.0521018
0.025159
0.000398587
-0.0212323
-0.0390342
-0.0525782
-0.0617098
-0.0665337
-0.0673832
-0.0647767
-0.0593674
-0.0518879
-0.0430963
-0.0337262
-0.0244437
-0.0158133
-0.00827503
-0.00213216
0.00245106
0.00544173
0.00692316
0.00707385
0.00614279
0.00442313
0.00222618
-0.000142534
-0.00240381
-0.004321
-0.00571132
-0.00645207
-0.00648198
-0.00579807
-0.0044489
-0.00252483
-0.000146397
0.00254824
0.00541602
0.00832085
0.0111441
0.0137932
0.0162076
0.0183622
0.0202688
0.0219738
0.0235545
0.0251132
0.0267693
0.0286509
0.0308851
0.0335888
0.0368596
0.0407677
0.0453496
0.0506023
0.0564816
0.0629004
0.0697312
0.0768095
0.0839402
0.0909055
0.0974741
0.103412
0.108492
0.112507
0.115277
0.116662
0.116562
0.114932
0.111775
0.107149
0.101161
0.0939625
0.0857449
0.0767285
0.0671536
0.0572701
0.0473269
0.0375615
0.028191
0.0194044
0.0113565
0.00416389
-0.00209695
-0.00738963
-0.0117158
-0.0151113
-0.0176416
-0.0193953
-0.0204777
-0.0210042
-0.0210939
-0.0208631
-0.0204206
-0.0198637
-0.0192744
-0.0187188
-0.0182451
-0.0178851
-0.0176547
-0.017556
-0.01758
-0.0177092
-0.0179204
-0.0181871
-0.0184826
-0.0187817
-0.0190623
-0.0193068
-0.0195024
-0.0196418
-0.0197226
-0.019747
-0.0197209
-0.0196531
-0.0195545
-0.0194365
-0.0193109
-0.0191888
-0.0190797
-0.0189916
-0.0189306
-0.0189005
-0.0189034
-0.0189394
-0.0190073
-0.0191046
-0.0192281
-0.0193739
-0.0195381
-0.0197168
-0.0199065
-0.0201039
-0.0203064
-0.0205119
-0.0207187
-0.0209257
-0.0211323
-0.0213378
-0.0215422
-0.0217453
-0.0219472
-0.0221479
-0.0223476
-0.0225463
-0.022744
-0.0229409
-0.023137
-0.0233323
-0.0235269
-0.0237205
-0.0239132
-0.0241047
-0.0242945
-0.024482
-0.0246665
-0.0248471
-0.0250226
-0.0251917
-0.0253532
-0.0255056
-0.0256477
-0.0257785
-0.0258972
-0.0260034
-0.0260972
-0.0261791
-0.0262503
-0.0263121
-0.0263665
-0.0264157
-0.0264619
-0.0265073
-0.0265538
-0.0266029
-0.0266555
-0.0267116
-0.0267705
-0.0268306
-0.0268893
-0.0269435
-0.0269895
-0.0270234
-0.0270414
-0.0270402
-0.0270173
-0.0269716
-0.0269033
-0.0268147
-0.0267099
-0.0265949
-0.0264775
-0.0263669
-0.0262734
-0.0262074
-0.026179
-0.0261968
-0.0262674
-0.0263941
-0.0265765
-0.02681
-0.0270852
-0.0273881
-0.0277002
-0.0279996
-0.0282618
-0.028461
-0.0285721
-0.0285723
-0.0284429
-0.0281711
-0.0277517
-0.0271879
-0.0264919
-0.0256849
-0.0247958
-0.0238602
-0.0229172
-0.022007
-0.021167
-0.0204285
-0.019813
-0.0193288
-0.018969
-0.0187103
-0.0185125
-0.0183208
-0.0180688
-0.0176837
-0.0170929
-0.0162313
-0.0150506
-0.013527
-0.01167
-0.00952864
-0.00719612
-0.0048111
-0.00255551
-0.00064804
0.000666773
0.00113378
0.000506307
-0.00143177
-0.00484236
-0.00980952
-0.0163178
-0.0242346
-0.0332988
-0.0431178
-0.0531734
-0.0628392
-0.0714082
-0.0781306
-0.0822604
-0.0831075
-0.0800924
-0.0727997
-0.061025
-0.0448117
-0.0244732
-0.000597713
0.0259679
0.0541531
0.0827194
0.110331
0.135636
0.157356
0.174372
0.1858
0.191052
0.189883
0.182399
0.169057
0.150623
0.128125
0.102771
0.0758748
0.0487628
0.0226949
-0.00121112
-0.0220391
-0.039116
-0.0520341
-0.0606536
-0.0650871
-0.0656689
-0.0629117
-0.0574567
-0.0500194
-0.0413366
-0.0321178
-0.0230033
-0.0145318
-0.00711886
-0.00104585
0.00354097
0.00662176
0.00828714
0.00871661
0.00815355
0.00687906
0.00518646
0.00335817
0.00164649
0.00025896
-0.000650959
-0.000988001
-0.000714128
0.000156822
0.00156805
0.00343123
0.00563945
0.00808038
0.0106488
0.0132575
0.0158459
0.0183852
0.0208815
0.0233744
0.0259332
0.0286503
0.0316318
0.0349878
0.0388206
0.0432138
0.0482222
0.0538631
0.0601095
0.0668876
0.0740751
0.0815049
0.0889704
0.0962346
0.103041
0.109125
0.114231
0.118122
0.120595
0.121494
0.120715
0.118217
0.114019
0.108208
0.100928
0.0923783
0.0827999
0.072467
0.0616723
0.050714
0.0398822
0.0294465
0.019645
0.0106756
0.00269001
-0.00420996
-0.00997279
-0.0145954
-0.018119
-0.0206224
-0.022215
-0.0230279
-0.0232051
-0.0228954
-0.0222438
-0.0213856
-0.0204404
-0.0195082
-0.0186674
-0.017974
-0.0174617
-0.0171443
-0.0170182
-0.0170653
-0.0172576
-0.01756
-0.0179348
-0.0183441
-0.0187533
-0.0191326
-0.0194586
-0.0197153
-0.0198939
-0.0199927
-0.0200161
-0.0199736
-0.0198784
-0.0197462
-0.0195936
-0.0194371
-0.0192918
-0.0191709
-0.019085
-0.0190416
-0.0190452
-0.0190976
-0.0191979
-0.019343
-0.0195282
-0.0197475
-0.0199944
-0.0202621
-0.0205441
-0.0208343
-0.0211275
-0.0214192
-0.021706
-0.0219852
-0.0222551
-0.0225147
-0.0227636
-0.0230019
-0.0232298
-0.0234479
-0.0236571
-0.023858
-0.0240513
-0.0242378
-0.024418
-0.0245925
-0.0247618
-0.0249261
-0.0250859
-0.0252412
-0.0253922
-0.0255389
-0.0256812
-0.0258186
-0.0259506
-0.0260767
-0.0261956
-0.0263064
-0.0264077
-0.0264979
-0.0265755
-0.026639
-0.0266872
-0.026719
-0.0267341
-0.0267325
-0.0267152
-0.0266839
-0.0266413
-0.026591
-0.0265373
-0.0264853
-0.0264404
-0.0264081
-0.0263939
-0.0264022
-0.0264367
-0.0264995
-0.0265907
-0.0267083
-0.0268482
-0.0270039
-0.0271667
-0.0273263
-0.0274711
-0.0275893
-0.0276692
-0.0277006
-0.0276759
-0.0275904
-0.0274437
-0.0272399
-0.0269877
-0.0267001
-0.0263941
-0.0260888
-0.0258044
-0.0255593
-0.0253686
-0.0252408
-0.0251759
-0.0251629
-0.0251789
-0.0251879
-0.0251415
-0.0249806
-0.0246388
-0.0240465
-0.0231368
-0.0218524
-0.020153
-0.018023
-0.0154781
-0.0125717
-0.00939886
-0.00609775
-0.00284808
0.000134089
0.00260532
0.00430764
0.00498492
0.00440203
0.00236602
-0.00125222
-0.00649706
-0.0133101
-0.0215167
-0.0308182
-0.0407933
-0.050907
-0.0605299
-0.0689676
-0.075498
-0.0794163
-0.0800843
-0.0769813
-0.0697528
-0.0582518
-0.0425709
-0.0230589
-0.000321479
0.0247976
0.0512538
0.0778567
0.103339
0.126437
0.145971
0.160926
0.170524
0.174276
0.172019
0.163924
0.150483
0.132475
0.110904
0.0869321
0.0617987
0.0367384
0.0129052
-0.00869462
-0.0272539
-0.0421996
-0.0532083
-0.0602045
-0.0633416
